00000000000000000000000000000000000000000000000000_0000000_1_0000_000
00000000000000000000000000000000000000000000000000_0000000_1_0000_000
10000000000000000000000000000000000000000000000000_0000001_1_0000_000
10000000000000000000000000000000000000000000000000_0000010_1_0000_000
00000000000000000000000000000000000000000000000000_0000000_1_0000_000
00000000000000000000000000000000000000000000000000_0000000_1_0000_000
00000000000000000000000000000000000000000000000000_0000000_1_0000_000
00000000000000000000000000000000000000000000000000_0000000_1_0000_000
00000000000000000000000000000000000000000000000000_0000000_1_0000_000
00000000000000000000000000000000000000000000000000_0000000_1_0000_000
00000000000000000000000000000000000000000000000000_0000000_1_0000_000
00000000000000000000000000000000000000000000000000_0000000_1_0000_000
00010000000000000000000000000000000000000000000000_0000101_1_1000_001
10000000000000000000000000000000000000000000000000_0000001_1_0000_000
10000000000000000000000000000000000000000000000000_0000001_1_0000_000
11000000000000000000000000000000000000000000000000_0000010_1_0000_000
00000000000000000000000000000000000000000000000000_0000000_1_0000_000
00000000000000000000000000000000000000000000000000_0000000_1_0000_000
00000000000000000000000000000000000000000000000000_0000000_1_0000_000
00000000000000000000000000000000000000000000000000_0000000_1_0000_000
00000000000000000000000000000000000000000000000000_0000000_1_0000_000
00000000000000000000000000000000000000000000000000_0000000_1_0000_000
00000000000000000000000000000000000000000000000000_0000000_1_0000_000
00000000000000000000000000000000000000000000000000_0000000_1_0000_000
10000000000000000000000000000000000000000000000000_0000001_1_0000_000
10000000000000000000000000000000000000000000000000_0000001_1_0000_000
10000000000000000000000000000000000000000000000000_0000001_1_0000_000
00010000000000000000000000000000000000000000000000_0000100_1_0000_000
00000000000000000000000000000000000000000000000000_0000000_1_0000_000
00000000000000000000000000000000000000000000000000_0000000_1_0000_000
00000000000000000000000000000000000000000000000000_0000000_1_0000_000
00000000000000000000000000000000000000000000000000_0000000_1_0000_000
00000000000000000000000000000000000000000000000000_0000000_1_0000_000
00000000000000000000000000000000000000000000000000_0000000_1_0000_000
00000000000000000000000000000000000000000000000000_0000000_1_0000_000
00000000000000000000000000000000000000000000000000_0000000_1_0000_000
00001000000000000000000000000000000000000000000000_0000101_1_0000_001
00110110000000000000000000000000000000000000000000_0000111_1_1100_011
00000000000000000000000000000000000000000000000000_0000101_1_1000_001
10110100000000000000000000000000000000000000000000_0000110_1_0000_000
10000000000000000000000000000000000000000000000000_0000001_1_0000_000
00001000000000000000000000000000000000000000000000_0000101_1_1000_001
10000000000000000000000000000000000000000000000000_0000001_1_0000_000
11000000000000000000000000000000000000000000000000_0000010_1_0000_000
00000000000000000000000000000000000000000000000000_0000000_1_0000_000
00000000000000000000000000000000000000000000000000_0000000_1_0000_000
00000000000000000000000000000000000000000000000000_0000000_1_0000_000
00000000000000000000000000000000000000000000000000_0000000_1_0000_000
10000000000000000000000000000000000000000000000000_0000001_1_0000_000
10000000000000000000000000000000000000000000000000_0000001_1_0000_000
10000000000000000000000000000000000000000000000000_0000001_1_0000_000
01100100000001100000000000000000000000000000000000_0010000_1_0000_000
10000000000000000000000000000000000000000000000000_0000001_1_0000_000
10000000000000000000000000000000000000000000000000_0000001_1_0000_000
10000000000000000000000000000000000000000000000000_0000001_1_0000_000
01000110100000000000000000000000000000000000000000_0001001_1_0000_000
10000000000000000000000000000000000000000000000000_0000001_1_0000_000
10000000000000000000000000000000000000000000000000_0000001_1_0000_000
10000000000000000000000000000000000000000000000000_0000001_1_0000_000
01000101000000000000000000000000000000000000000000_0001001_1_0000_000
10000000000000000000000000000000000000000000000000_0000001_1_0000_000
10000000000000000000000000000000000000000000000000_0000001_1_0000_000
10000000000000000000000000000000000000000000000000_0000001_1_0000_000
01000000000000000000000000000000000000000000000000_0001001_1_0000_000
00000000000000000000000000000000000000000000000000_0000000_1_0000_000
00000000000000000000000000000000000000000000000000_0000000_1_0000_000
00000000000000000000000000000000000000000000000000_0000000_1_0000_000
00000000000000000000000000000000000000000000000000_0000000_1_0000_000
00000000000000000000000000000000000000000000000000_0000000_1_0000_000
00000000000000000000000000000000000000000000000000_0000000_1_0000_000
00000000000000000000000000000000000000000000000000_0000000_1_0000_000
00000000000000000000000000000000000000000000000000_0000000_1_0000_000
10000000000000000000000000000000000000000000000000_0000001_1_0000_000
10000000000000000000000000000000000000000000000000_0000001_1_0000_000
10000000000000000000000000000000000000000000000000_0000001_1_0000_000
01100000100000100000000000000000000000000000000000_0010000_1_0000_000
00000000000000000000000000000000000000000000000000_0000000_1_0000_000
00000000000000000000000000000000000000000000000000_0000000_1_0000_000
00000000000000000000000000000000000000000000000000_0000000_1_0000_000
00000000000000000000000000000000000000000000000000_0000000_1_0000_000
00000000000000000000000000000000000000000000000000_0000000_1_0000_000
00000000000000000000000000000000000000000000000000_0000000_1_0000_000
00000000000000000000000000000000000000000000000000_0000000_1_0000_000
00000000000000000000000000000000000000000000000000_0000000_1_0000_000
10000000000000000000000000000000000000000000000000_0000001_1_0000_000
10000000000000000000000000000000000000000000000000_0000001_1_0000_000
10000000000000000000000000000000000000000000000000_0000001_1_0000_000
01100000100000100000000000000000000000000000000000_0010000_1_0000_000
10000000000000000000000000000000000000000000000000_0000001_1_0000_000
10000000000000000000000000000000000000000000000000_0000001_1_0000_000
10000000000000000000000000000000000000000000000000_0000001_1_0000_000
00010000000000000000000000000000000000000000000000_0000100_1_0000_000
10000000000000000000000000000000000000000000000000_0000001_1_0000_000
10000000000000000000000000000000000000000000000000_0000001_1_0000_000
10000000000000000000000000000000000000000000000000_0000001_1_0000_000
01000001100000000000000000000000000000000000000000_0001001_1_0000_000
00100000000000000000000000000000000000000000000000_0000110_1_1100_010
00101000000000000000000000000000000000000000000000_0000110_1_1000_010
00001000000000000000000000000000000000000000000000_0000101_1_0000_001
11110000000000000000000000000000000000000000000000_0000110_1_0000_000
10000000000000000000000000000000000000000000000000_0000001_1_0000_000
10000000000000000000000000000000000000000000000000_0000001_1_0000_000
00101000000000000000000000000000000000000000000000_0000110_1_1100_010
00111011100000000000000000000000000000000000000000_0001001_1_0000_000
00000000000000000000000000000000000000000000000000_0000000_1_0000_000
00000000000000000000000000000000000000000000000000_0000000_1_0000_000
00000000000000000000000000000000000000000000000000_0000000_1_0000_000
00000000000000000000000000000000000000000000000000_0000000_1_0000_000
00110100000000000000000000000000000000000000000000_0000111_1_1110_011
01010000110000000000000000000000000000000000000000_0001010_1_1100_010
00000000000000000000000000000000000000000000000000_0000101_1_1000_001
11111110000000000000000000000000000000000000000000_0000111_1_0000_000
10000000000000000000000000000000000000000000000000_0000001_1_0000_000
00101000000000000000000000000000000000000000000000_0000110_1_1100_010
00100000000000000000000000000000000000000000000000_0000110_1_1100_010
11111000000000000000000000000000000000000000000000_0000101_1_0000_000
10000000000000000000000000000000000000000000000000_0000001_1_0000_000
00001000000000000000000000000000000000000000000000_0000101_1_1000_001
00001000000000000000000000000000000000000000000000_0000101_1_0000_001
00111001000000000000000000000000000000000000000000_0001001_1_0000_000
10000000000000000000000000000000000000000000000000_0000001_1_0000_000
10000000000000000000000000000000000000000000000000_0000001_1_0000_000
10000000000000000000000000000000000000000000000000_0000001_1_0000_000
01000001000000000000000000000000000000000000000000_0001001_1_0000_000
00000000000000000000000000000000000000000000000000_0000000_1_0000_000
00000000000000000000000000000000000000000000000000_0000000_1_0000_000
00000000000000000000000000000000000000000000000000_0000000_1_0000_000
00000000000000000000000000000000000000000000000000_0000000_1_0000_000
10000000000000000000000000000000000000000000000000_0000001_1_0000_000
10000000000000000000000000000000000000000000000000_0000001_1_0000_000
10000000000000000000000000000000000000000000000000_0000001_1_0000_000
00000000000000000000000000000000000000000000000000_0000100_1_0000_000
10000000000000000000000000000000000000000000000000_0000001_1_0000_000
10000000000000000000000000000000000000000000000000_0000001_1_0000_000
00100000000000000000000000000000000000000000000000_0000110_1_0000_010
10000000000000000000000000000000000000000000000000_0000011_1_0000_000
00000000000000000000000000000000000000000000000000_0000000_1_0000_000
00000000000000000000000000000000000000000000000000_0000000_1_0000_000
00000000000000000000000000000000000000000000000000_0000000_1_0000_000
00000000000000000000000000000000000000000000000000_0000000_1_0000_000
00000000000000000000000000000000000000000000000000_0000000_1_0000_000
00000000000000000000000000000000000000000000000000_0000000_1_0000_000
00000000000000000000000000000000000000000000000000_0000000_1_0000_000
00000000000000000000000000000000000000000000000000_0000000_1_0000_000
10000000000000000000000000000000000000000000000000_0000001_1_0000_000
00110100000000000000000000000000000000000000000000_0000111_1_1110_011
00100100000000000000000000000000000000000000000000_0000110_1_1100_010
01011010100111110000000000000000000000000000000000_0010000_1_0000_000
00001000000000000000000000000000000000000000000000_0000101_1_1000_001
00110100000000000000000000000000000000000000000000_0000111_1_1110_011
10000000000000000000000000000000000000000000000000_0000001_1_0000_000
00001111000000000000000000000000000000000000000000_0001000_1_0000_000
00000000000000000000000000000000000000000000000000_0000000_1_0000_000
00000000000000000000000000000000000000000000000000_0000000_1_0000_000
00000000000000000000000000000000000000000000000000_0000000_1_0000_000
00000000000000000000000000000000000000000000000000_0000000_1_0000_000
10000000000000000000000000000000000000000000000000_0000001_1_0000_000
00001000000000000000000000000000000000000000000000_0000101_1_1000_001
10000000000000000000000000000000000000000000000000_0000001_1_0000_000
11000000000000000000000000000000000000000000000000_0000010_1_0000_000
00000000000000000000000000000000000000000000000000_0000000_1_0000_000
00000000000000000000000000000000000000000000000000_0000000_1_0000_000
00000000000000000000000000000000000000000000000000_0000000_1_0000_000
00000000000000000000000000000000000000000000000000_0000000_1_0000_000
00000000000000000000000000000000000000000000000000_0000000_1_0000_000
00000000000000000000000000000000000000000000000000_0000000_1_0000_000
00000000000000000000000000000000000000000000000000_0000000_1_0000_000
00000000000000000000000000000000000000000000000000_0000000_1_0000_000
10000000000000000000000000000000000000000000000000_0000001_1_0000_000
10000000000000000000000000000000000000000000000000_0000001_1_0000_000
10000000000000000000000000000000000000000000000000_0000001_1_0000_000
01000010000000000000000000000000000000000000000000_0001001_1_0000_000
00000000000000000000000000000000000000000000000000_0000000_1_0000_000
00000000000000000000000000000000000000000000000000_0000000_1_0000_000
00000000000000000000000000000000000000000000000000_0000000_1_0000_000
00000000000000000000000000000000000000000000000000_0000000_1_0000_000
10000000000000000000000000000000000000000000000000_0000001_1_0000_000
10000000000000000000000000000000000000000000000000_0000001_1_0000_000
10000000000000000000000000000000000000000000000000_0000001_1_0000_000
01000000000000000000000000000000000000000000000000_0001001_1_0000_000
10000000000000000000000000000000000000000000000000_0000001_1_0000_000
10000000000000000000000000000000000000000000000000_0000001_1_0000_000
10000000000000000000000000000000000000000000000000_0000001_1_0000_000
00110000000000000000000000000000000000000000000000_0000110_1_0000_000
10000000000000000000000000000000000000000000000000_0000001_1_0000_000
10000000000000000000000000000000000000000000000000_0000001_1_0000_000
00101100000000000000000000000000000000000000000000_0000110_1_1100_010
00110011000000000000000000000000000000000000000000_0001000_1_0000_000
10000000000000000000000000000000000000000000000000_0000001_1_0000_000
10000000000000000000000000000000000000000000000000_0000001_1_0000_000
10000000000000000000000000000000000000000000000000_0000001_1_0000_000
01011010001000000000000000000000000000000000000000_0001011_1_0000_000
10000000000000000000000000000000000000000000000000_0000001_1_0000_000
10000000000000000000000000000000000000000000000000_0000001_1_0000_000
10000000000000000000000000000000000000000000000000_0000001_1_0000_000
01100001100101110000000000000000000000000000000000_0010000_1_0000_000
00000000000000000000000000000000000000000000000000_0000000_1_0000_000
00000000000000000000000000000000000000000000000000_0000000_1_0000_000
00000000000000000000000000000000000000000000000000_0000000_1_0000_000
00000000000000000000000000000000000000000000000000_0000000_1_0000_000
10000000000000000000000000000000000000000000000000_0000001_1_0000_000
10000000000000000000000000000000000000000000000000_0000001_1_0000_000
10000000000000000000000000000000000000000000000000_0000001_1_0000_000
01010101010000000000000000000000000000000000000000_0001010_1_0000_000
01110011000111011011100000000000000000000000000000_0010101_1_1111_100
01011100110000000000000000000000000000000000000000_0001100_1_1110_011
00001000000000000000000000000000000000000000000000_0000101_1_1000_001
00110111111111000000000000000000000000000000000000_0001110_1_0000_000
01000011100000000000000000000000000000000000000000_0001001_1_1100_010
00001000000000000000000000000000000000000000000000_0000101_1_1000_001
10000000000000000000000000000000000000000000000000_0000001_1_0000_000
11110000000000000000000000000000000000000000000000_0000100_1_0000_000
01110011000111010011000000000000000000000000000000_0010101_1_1111_100
01011110000000000000000000000000000000000000000000_0001101_1_1111_100
00101000000000000000000000000000000000000000000000_0000110_1_1100_010
11111111111000000000000000000000000000000000000000_0001011_1_0000_000
10000000000000000000000000000000000000000000000000_0000001_1_0000_000
10000000000000000000000000000000000000000000000000_0001011_1_0000_000
10000000000000000000000000000000000000000000000000_0001011_1_0000_000
01011111100101000000000000000000000000000000000000_0011001_1_0000_000
00000000000000000000000000000000000000000000000000_0000000_1_0000_000
00000000000000000000000000000000000000000000000000_0001010_1_0000_000
00000000000000000000000000000000000000000000000000_0001010_1_0000_000
00000000000000000000000000000000000000000000000000_0001010_1_0000_000
10000000000000000000000000000000000000000000000000_0000001_1_0000_000
10000000000000000000000000000000000000000000000000_0001011_1_0000_000
10000000000000000000000000000000000000000000000000_0001011_1_0000_000
01011001010000000000000000000000000000000000000000_0010101_1_0000_000
10000000000000000000000000000000000000000000000000_0000001_1_0000_000
10000000000000000000000000000000000000000000000000_0000001_1_0000_000
00111100000000000000000000000000000000000000000000_0000111_1_0000_100
01001101000000000000000000000000000000000000000000_0001101_1_0000_000
00000000000000000000000000000000000000000000000000_0000000_1_0000_000
00000000000000000000000000000000000000000000000000_0000000_1_0000_000
00000000000000000000000000000000000000000000000000_0000000_1_0000_000
00000000000000000000000000000000000000000000000000_0000000_1_0000_000
10000000000000000000000000000000000000000000000000_0000001_1_0000_000
10000000000000000000000000000000000000000000000000_0000001_1_0000_000
10000000000000000000000000000000000000000000000000_0000001_1_0000_000
01000001100000000000000000000000000000000000000000_0001001_1_0000_000
10000000000000000000000000000000000000000000000000_0000001_1_0000_000
10000000000000000000000000000000000000000000000000_0000001_1_0000_000
10000000000000000000000000000000000000000000000000_0000001_1_0000_000
01000000100000000000000000000000000000000000000000_0001001_1_0000_000
00000000000000000000000000000000000000000000000000_0000000_1_0000_000
00000000000000000000000000000000000000000000000000_0000000_1_0000_000
00000000000000000000000000000000000000000000000000_0000000_1_0000_000
00000000000000000000000000000000000000000000000000_0000000_1_0000_000
10000000000000000000000000000000000000000000000000_0000001_1_0000_000
10000000000000000000000000000000000000000000000000_0000001_1_0000_000
10000000000000000000000000000000000000000000000000_0000001_1_0000_000
01000000000000000000000000000000000000000000000000_0001001_1_0000_000
00000000000000000000000000000000000000000000000000_0000101_1_0000_001
10000000000000000000000000000000000000000000000000_0001011_1_0000_000
10000000000000000000000000000000000000000000000000_0001011_1_0000_000
10000000000000000000000000000000000000000000000000_0001100_1_0000_000
00000000000000000000000000000000000000000000000000_0000000_1_0000_000
00000000000000000000000000000000000000000000000000_0001010_1_0000_000
00000000000000000000000000000000000000000000000000_0001010_1_0000_000
00000000000000000000000000000000000000000000000000_0001010_1_0000_000
00000000000000000000000000000000000000000000000000_0000000_1_0000_000
00000000000000000000000000000000000000000000000000_0001010_1_0000_000
00000000000000000000000000000000000000000000000000_0001010_1_0000_000
00000000000000000000000000000000000000000000000000_0001010_1_0000_000
10000000000000000000000000000000000000000000000000_0000001_1_0000_000
10000000000000000000000000000000000000000000000000_0001011_1_0000_000
10000000000000000000000000000000000000000000000000_0001011_1_0000_000
00110100000000000000000000000000000000000000000000_0010000_1_0000_000
00000000000000000000000000000000000000000000000000_0000000_1_0000_000
00000000000000000000000000000000000000000000000000_0001010_1_0000_000
00000000000000000000000000000000000000000000000000_0001010_1_0000_000
00000000000000000000000000000000000000000000000000_0001010_1_0000_000
00000000000000000000000000000000000000000000000000_0000000_1_0000_000
00000000000000000000000000000000000000000000000000_0001010_1_0000_000
00000000000000000000000000000000000000000000000000_0001010_1_0000_000
00000000000000000000000000000000000000000000000000_0001010_1_0000_000
10000000000000000000000000000000000000000000000000_0000001_1_0000_000
10000000000000000000000000000000000000000000000000_0001011_1_0000_000
10000000000000000000000000000000000000000000000000_0001011_1_0000_000
01110000100100010010000000000000000000000000000000_0011111_1_0000_000
10000000000000000000000000000000000000000000000000_0000001_1_0000_000
10000000000000000000000000000000000000000000000000_0001011_1_0000_000
00001000000000000000000000000000000000000000000000_0001111_1_1000_001
01100001101111000000000000100000000000000000000000_0011011_1_0000_000
10000000000000000000000000000000000000000000000000_0000001_1_0000_000
10000000000000000000000000000000000000000000000000_0001011_1_0000_000
10000000000000000000000000000000000000000000000000_0001011_1_0000_000
01000011000000000000000000000000000000000000000000_0010011_1_0000_000
00011000000000000000000000000000000000000000000000_0000101_1_1000_001
00011000000000000000000000000000000000000000000000_0000101_1_1000_001
10000000000000000000000000000000000000000000000000_0000001_1_0000_000
01100010010100111100000000000000000000000000000000_0010010_1_0000_000
00011000000000000000000000000000000000000000000000_0000101_1_0000_001
00011000000000000000000000000000000000000000000000_0000101_1_0000_001
10000000000000000000000000000000000000000000000000_0000001_1_0000_000
10000000000000000000000000000000000000000000000000_0000011_1_0000_000
10000000000000000000000000000000000000000000000000_0000001_1_0000_000
10000000000000000000000000000000000000000000000000_0000001_1_0000_000
00100100000000000000000000000000000000000000000000_0000110_1_1100_010
01100000000010101100000000000000000000000000000000_0010010_1_0000_000
10000000000000000000000000000000000000000000000000_0000001_1_0000_000
10000000000000000000000000000000000000000000000000_0000001_1_0000_000
01001000000000000000000000000000000000000000000000_0001001_1_0000_011
01110110110111110111100000000000000000000000000000_0011000_1_0000_000
10000000000000000000000000000000000000000000000000_0000001_1_0000_000
10000000000000000000000000000000000000000000000000_0000001_1_0000_000
00001000000000000000000000000000000000000000000000_0000101_1_1000_001
01110001101000001000010000000000000000000000000000_0010110_1_0000_000
00000000000000000000000000000000000000000000000000_0000000_1_0000_000
00000000000000000000000000000000000000000000000000_0000000_1_0000_000
00000000000000000000000000000000000000000000000000_0000000_1_0000_000
00000000000000000000000000000000000000000000000000_0000000_1_0000_000
10000000000000000000000000000000000000000000000000_0000001_1_0000_000
10000000000000000000000000000000000000000000000000_0000001_1_0000_000
00001000000000000000000000000000000000000000000000_0000101_1_0000_001
01011111001001000000000000000000000000000000000000_0001111_1_0000_000
10000000000000000000000000000000000000000000000000_0000001_1_0000_000
10000000000000000000000000000000000000000000000000_0000001_1_0000_000
00100000000000000000000000000000000000000000000000_0000110_1_1100_010
01000010111000000000000000000000000000000000000000_0001011_1_0000_000
10000000000000000000000000000000000000000000000000_0000001_1_0000_000
10000000000000000000000000000000000000000000000000_0000001_1_0000_000
10000000000000000000000000000000000000000000000000_0000001_1_0000_000
00111100000000000000000000000000000000000000000000_0001000_1_0000_000
10000000000000000000000000000000000000000000000000_0000001_1_0000_000
10000000000000000000000000000000000000000000000000_0000001_1_0000_000
01000000100000000000000000000000000000000000000000_0001001_1_0000_001
01111000011001110010001010000000000000000000000000_0011011_1_0000_000
10000000000000000000000000000000000000000000000000_0000001_1_0000_000
10000000000000000000000000000000000000000000000000_0000001_1_0000_000
10000000000000000000000000000000000000000000000000_0000001_1_0000_000
01000001100000000000000000000000000000000000000000_0001001_1_0000_000
10000000000000000000000000000000000000000000000000_0000001_1_0000_000
10000000000000000000000000000000000000000000000000_0000001_1_0000_000
00101100000000000000000000000000000000000000000000_0000110_1_0000_010
01111000010001110001101001000000000000000000000000_0011100_1_0000_000
10000000000000000000000000000000000000000000000000_0000001_1_0000_000
10000000000000000000000000000000000000000000000000_0000001_1_0000_000
10000000000000000000000000000000000000000000000000_0000001_1_0000_000
01000110100000000000000000000000000000000000000000_0001001_1_0000_000
00000000000000000000000000000000000000000000000000_0000000_1_0000_000
00000000000000000000000000000000000000000000000000_0000000_1_0000_000
00000000000000000000000000000000000000000000000000_0000000_1_0000_000
00000000000000000000000000000000000000000000000000_0000000_1_0000_000
00000000000000000000000000000000000000000000000000_0000000_1_0000_000
00000000000000000000000000000000000000000000000000_0000000_1_0000_000
00000000000000000000000000000000000000000000000000_0000000_1_0000_000
00000000000000000000000000000000000000000000000000_0000000_1_0000_000
10000000000000000000000000000000000000000000000000_0000001_1_0000_000
10000000000000000000000000000000000000000000000000_0000001_1_0000_000
00100100000000000000000000000000000000000000000000_0000110_1_0000_010
01111000000001110001001001000000000000000000000000_0011100_1_0000_000
10000000000000000000000000000000000000000000000000_0000001_1_0000_000
10000000000000000000000000000000000000000000000000_0000001_1_0000_000
10000000000000000000000000000000000000000000000000_0000001_1_0000_000
01100100100000010000000000000000000000000000000000_0010000_1_0000_000
10000000000000000000000000000000000000000000000000_0000001_1_0000_000
10000000000000000000000000000000000000000000000000_0000001_1_0000_000
00001000000000000000000000000000000000000000000000_0000101_1_0000_001
01111000001010000000101001000000000000000000000000_0011011_1_0000_000
00111000000000000000000000000000000000000000000000_0000111_1_0000_011
00000000000000000000000000000000000000000000000000_0000101_1_0000_001
00111000000000000000000000000000000000000000000000_0000111_1_1100_011
00101000011000000000000000000000000000000000000000_0001100_1_0000_000
00000000000000000000000000000000000000000000000000_0000000_1_0000_000
00000000000000000000000000000000000000000000000000_0000000_1_0000_000
00000000000000000000000000000000000000000000000000_0000000_1_0000_000
00000000000000000000000000000000000000000000000000_0000000_1_0000_000
00000000000000000000000000000000000000000000000000_0000000_1_0000_000
00000000000000000000000000000000000000000000000000_0000000_1_0000_000
00000000000000000000000000000000000000000000000000_0000000_1_0000_000
00000000000000000000000000000000000000000000000000_0000000_1_0000_000
10000000000000000000000000000000000000000000000000_0000001_1_0000_000
10000000000000000000000000000000000000000000000000_0001011_1_0000_000
00100100000000000000000000000000000000000000000000_0010000_1_0000_010
01000010100000000000000000000000000000000000000000_0010101_1_0000_000
00000000000000000000000000000000000000000000000000_0000000_1_0000_000
00000000000000000000000000000000000000000000000000_0001010_1_0000_000
00000000000000000000000000000000000000000000000000_0001010_1_0000_000
00000000000000000000000000000000000000000000000000_0001010_1_0000_000
10000000000000000000000000000000000000000000000000_0000001_1_0000_000
10000000000000000000000000000000000000000000000000_0001011_1_0000_000
00001000000000000000000000000000000000000000000000_0001111_1_0000_001
01000011100000000000000000000000000000000000000000_0010100_1_0000_000
00010000000000000000000000000000000000000000000000_0000101_1_1000_001
10000000000000000000000000000000000000000000000000_0000001_1_0000_000
10000000000000000000000000000000000000000000000000_0000001_1_0000_000
11000000000000000000000000000000000000000000000000_0000010_1_0000_000
00000000000000000000000000000000000000000000000000_0000000_1_0000_000
00000000000000000000000000000000000000000000000000_0000000_1_0000_000
00000000000000000000000000000000000000000000000000_0000000_1_0000_000
00000000000000000000000000000000000000000000000000_0000000_1_0000_000
00000000000000000000000000000000000000000000000000_0000000_1_0000_000
00000000000000000000000000000000000000000000000000_0000000_1_0000_000
00000000000000000000000000000000000000000000000000_0000000_1_0000_000
00000000000000000000000000000000000000000000000000_0000000_1_0000_000
10000000000000000000000000000000000000000000000000_0000001_1_0000_000
10000000000000000000000000000000000000000000000000_0000001_1_0000_000
00100100000000000000000000000000000000000000000000_0000110_1_0000_010
01100010010100010000000000000000000000000000000000_0010010_1_0000_000
10000000000000000000000000000000000000000000000000_0000001_1_0000_000
10000000000000000000000000000000000000000000000000_0000001_1_0000_000
10000000000000000000000000000000000000000000000000_0000001_1_0000_000
00111000000000000000000000000000000000000000000000_0000111_1_0000_000
10000000000000000000000000000000000000000000000000_0000001_1_0000_000
10000000000000000000000000000000000000000000000000_0000001_1_0000_000
00101100000000000000000000000000000000000000000000_0000110_1_0000_010
01000000100000000000000000000000000000000000000000_0001011_1_0000_000
00110100000000000000000000000000000000000000000000_0000111_1_0000_011
00100100000000000000000000000000000000000000000000_0000110_1_0000_010
00100000000000000000000000000000000000000000000000_0000110_1_0000_010
10000000000000000000000000000000000000000000000000_0001000_1_0000_000
00000000000000000000000000000000000000000000000000_0000000_1_0000_000
00000000000000000000000000000000000000000000000000_0000000_1_0000_000
00000000000000000000000000000000000000000000000000_0000000_1_0000_000
00000000000000000000000000000000000000000000000000_0000000_1_0000_000
00000000000000000000000000000000000000000000000000_0000000_1_0000_000
00000000000000000000000000000000000000000000000000_0000000_1_0000_000
00000000000000000000000000000000000000000000000000_0000000_1_0000_000
00000000000000000000000000000000000000000000000000_0000000_1_0000_000
10000000000000000000000000000000000000000000000000_0000001_1_0000_000
10000000000000000000000000000000000000000000000000_0001011_1_0000_000
10000000000000000000000000000000000000000000000000_0001011_1_0000_000
10000000000000000000000000000000000000000000000000_0001011_1_0000_000
00000000000000000000000000000000000000000000000000_0000000_1_0000_000
00000000000000000000000000000000000000000000000000_0001010_1_0000_000
00000000000000000000000000000000000000000000000000_0001010_1_0000_000
00000000000000000000000000000000000000000000000000_0001010_1_0000_000
00000000000000000000000000000000000000000000000000_0000000_1_0000_000
00000000000000000000000000000000000000000000000000_0001010_1_0000_000
00000000000000000000000000000000000000000000000000_0001010_1_0000_000
00000000000000000000000000000000000000000000000000_0001010_1_0000_000
10000000000000000000000000000000000000000000000000_0000001_1_0000_000
10000000000000000000000000000000000000000000000000_0001011_1_0000_000
10000000000000000000000000000000000000000000000000_0001011_1_0000_000
01100000000000100000000000000000000000000000000000_0011010_1_0000_000
00000000000000000000000000000000000000000000000000_0000000_1_0000_000
00000000000000000000000000000000000000000000000000_0001010_1_0000_000
00000000000000000000000000000000000000000000000000_0001010_1_0000_000
00000000000000000000000000000000000000000000000000_0001010_1_0000_000
10000000000000000000000000000000000000000000000000_0000001_1_0000_000
10000000000000000000000000000000000000000000000000_0001011_1_0000_000
10000000000000000000000000000000000000000000000000_0001011_1_0000_000
01000000100000000000000000000000000000000000000000_0010011_1_0000_000
10000000000000000000000000000000000000000000000000_0000001_1_0000_000
10000000000000000000000000000000000000000000000000_0000001_1_0000_000
00100100000000000000000000000000000000000000000000_0000110_1_0000_010
01100010010110110000000000000000000000000000000000_0010010_1_0000_000
00000000000000000000000000000000000000000000000000_0000000_1_0000_000
00000000000000000000000000000000000000000000000000_0000000_1_0000_000
00000000000000000000000000000000000000000000000000_0000000_1_0000_000
00000000000000000000000000000000000000000000000000_0000000_1_0000_000
10000000000000000000000000000000000000000000000000_0000001_1_0000_000
10000000000000000000000000000000000000000000000000_0000001_1_0000_000
00101100000000000000000000000000000000000000000000_0000110_1_0000_010
01110000100000100001000000000000000000000000000000_0010111_1_0000_000
01000010100000000000000000000000000000000000000000_0001001_1_0000_010
00110110000000000000000000000000000000000000000000_0000111_1_0000_011
10000000000000000000000000000000000000000000000000_0000001_1_0000_000
10000000000000000000000000000000000000000000000000_0000110_1_0000_000
00000000000000000000000000000000000000000000000000_0000000_1_0000_000
00000000000000000000000000000000000000000000000000_0000000_1_0000_000
00000000000000000000000000000000000000000000000000_0000000_1_0000_000
00000000000000000000000000000000000000000000000000_0000000_1_0000_000
01011100111000000000000000000000000000000000000000_0001100_1_0000_011
00000000000000000000000000000000000000000000000000_0000101_1_0000_001
10000000000000000000000000000000000000000000000000_0000001_1_0000_000
10000000000000000000000000000000000000000000000000_0000101_1_0000_000
10000000000000000000000000000000000000000000000000_0000001_1_0000_000
10000000000000000000000000000000000000000000000000_0000001_1_0000_000
10000000000000000000000000000000000000000000000000_0000001_1_0000_000
01110000111010001101100000000000000000000000000000_0010101_1_0000_000
10000000000000000000000000000000000000000000000000_0000001_1_0000_000
10000000000000000000000000000000000000000000000000_0000001_1_0000_000
10000000000000000000000000000000000000000000000000_0000001_1_0000_000
00111000000000000000000000000000000000000000000000_0000111_1_0000_000
10000000000000000000000000000000000000000000000000_0000001_1_0000_000
10000000000000000000000000000000000000000000000000_0000001_1_0000_000
10000000000000000000000000000000000000000000000000_0000001_1_0000_000
01100011010001000000000000000000000000000000000000_0010000_1_0000_000
01101101100000100000000000000000000000000000000000_0010000_1_1110_011
01010111000000000000000000000000000000000000000000_0001010_1_0000_011
10000000000000000000000000000000000000000000000000_0000001_1_0000_000
11110000000000000000000000000000000000000000000000_0000111_1_0000_000
00111000000000000000000000000000000000000000000000_0000111_1_1110_011
10000000000000000000000000000000000000000000000000_0000001_1_0000_000
10000000000000000000000000000000000000000000000000_0000001_1_0000_000
11110000000000000000000000000000000000000000000000_0000100_1_0000_000
01101001010000100000000000000000000000000000000000_0010000_1_1110_011
01011000111000000000000000000000000000000000000000_0001011_1_0000_011
10000000000000000000000000000000000000000000000000_0000001_1_0000_000
11110000000000000000000000000000000000000000000000_0000111_1_0000_000
10000000000000000000000000000000000000000000000000_0000001_1_0000_000
10000000000000000000000000000000000000000000000000_0001011_1_0000_000
00110010000000000000000000000000000000000000000000_0010001_1_1100_010
01101101101110100000000000110000000000000000000000_0011100_1_0000_000
00000000000000000000000000000000000000000000000000_0000000_1_0000_000
00000000000000000000000000000000000000000000000000_0001010_1_0000_000
00000000000000000000000000000000000000000000000000_0001010_1_0000_000
00000000000000000000000000000000000000000000000000_0001010_1_0000_000
10000000000000000000000000000000000000000000000000_0000001_1_0000_000
10000000000000000000000000000000000000000000000000_0001011_1_0000_000
00100100000000000000000000000000000000000000000000_0010000_1_1100_010
01011101100000000000001100000000000000000000000000_0011000_1_0000_000
10000000000000000000000000000000000000000000000000_0000001_1_0000_000
10000000000000000000000000000000000000000000000000_0000001_1_0000_000
10000000000000000000000000000000000000000000000000_0000001_1_0000_000
01101110110000100000000000000000000000000000000000_0010000_1_0000_000
00000000000000000000000000000000000000000000000000_0000000_1_0000_000
00000000000000000000000000000000000000000000000000_0000000_1_0000_000
00000000000000000000000000000000000000000000000000_0000000_1_0000_000
00000000000000000000000000000000000000000000000000_0000000_1_0000_000
10000000000000000000000000000000000000000000000000_0000001_1_0000_000
10000000000000000000000000000000000000000000000000_0000001_1_0000_000
10000000000000000000000000000000000000000000000000_0000001_1_0000_000
01100000110000010000000000000000000000000000000000_0010000_1_0000_000
01010110100000000000000000000000000000000000000000_0001010_1_1110_011
01000111000000000000000000000000000000000000000000_0001001_1_1100_010
00100000000000000000000000000000000000000000000000_0000110_1_0000_010
11111100000000000000000000000000000000000000000000_0001000_1_0000_000
00000000000000000000000000000000000000000000000000_0000000_1_0000_000
00000000000000000000000000000000000000000000000000_0000000_1_0000_000
00000000000000000000000000000000000000000000000000_0000000_1_0000_000
00000000000000000000000000000000000000000000000000_0000000_1_0000_000
00101100000000000000000000000000000000000000000000_0000110_1_1100_010
00101000000000000000000000000000000000000000000000_0000110_1_1000_010
10000000000000000000000000000000000000000000000000_0000001_1_0000_000
11110000000000000000000000000000000000000000000000_0000101_1_0000_000
10000000000000000000000000000000000000000000000000_0000001_1_0000_000
10000000000000000000000000000000000000000000000000_0001011_1_0000_000
10000000000000000000000000000000000000000000000000_0001011_1_0000_000
01000001100000000000000000000000000000000000000000_0010011_1_0000_000
00000000000000000000000000000000000000000000000000_0000000_1_0000_000
00000000000000000000000000000000000000000000000000_0001010_1_0000_000
00000000000000000000000000000000000000000000000000_0001010_1_0000_000
00000000000000000000000000000000000000000000000000_0001010_1_0000_000
10000000000000000000000000000000000000000000000000_0000001_1_0000_000
10000000000000000000000000000000000000000000000000_0001011_1_0000_000
10000000000000000000000000000000000000000000000000_0001011_1_0000_000
01000001100000000000000000000000000000000000000000_0010011_1_0000_000
01000100000000000000000000000000000000000000000000_0001001_1_1100_010
00100000000000000000000000000000000000000000000000_0010000_1_1000_010
10000000000000000000000000000000000000000000000000_0001011_1_0000_000
10000000000111000000000000000000000000000000000000_0001111_1_0000_000
00000000000000000000000000000000000000000000000000_0000000_1_0000_000
00000000000000000000000000000000000000000000000000_0001010_1_0000_000
00000000000000000000000000000000000000000000000000_0001010_1_0000_000
00000000000000000000000000000000000000000000000000_0001010_1_0000_000
01000101100000000000000000000000000000000000000000_0001001_1_1100_010
00001000000000000000000000000000000000000000000000_0001111_1_0000_001
00011000000000000000000000000000000000000000000000_0001111_1_0000_001
10000000000110000000000000000000000000000000000000_0001111_1_0000_000
10000000000000000000000000000000000000000000000000_0000001_1_0000_000
10000000000000000000000000000000000000000000000000_0001011_1_0000_000
10000000000000000000000000000000000000000000000000_0001011_1_0000_000
10000000000000000000000000000000000000000000000000_0001011_1_0000_000
00000000000000000000000000000000000000000000000000_0000000_1_0000_000
00000000000000000000000000000000000000000000000000_0001010_1_0000_000
00000000000000000000000000000000000000000000000000_0001010_1_0000_000
00000000000000000000000000000000000000000000000000_0001010_1_0000_000
00000000000000000000000000000000000000000000000000_0000000_1_0000_000
00000000000000000000000000000000000000000000000000_0001010_1_0000_000
00000000000000000000000000000000000000000000000000_0001010_1_0000_000
00000000000000000000000000000000000000000000000000_0001010_1_0000_000
00011000000000000000000000000000000000000000000000_0000101_1_1000_001
10000000000000000000000000000000000000000000000000_0001011_1_0000_000
10000000000000000000000000000000000000000000000000_0001011_1_0000_000
10000000000100000000000000000000000000000000000000_0001100_1_0000_000
00000000000000000000000000000000000000000000000000_0000000_1_0000_000
00000000000000000000000000000000000000000000000000_0001010_1_0000_000
00000000000000000000000000000000000000000000000000_0001010_1_0000_000
00000000000000000000000000000000000000000000000000_0001010_1_0000_000
00000000000000000000000000000000000000000000000000_0000000_1_0000_000
00000000000000000000000000000000000000000000000000_0001010_1_0000_000
00000000000000000000000000000000000000000000000000_0001010_1_0000_000
00000000000000000000000000000000000000000000000000_0001010_1_0000_000
10000000000000000000000000000000000000000000000000_0000001_1_0000_000
10000000000000000000000000000000000000000000000000_0001011_1_0000_000
10000000000000000000000000000000000000000000000000_0001011_1_0000_000
10000000000000000000000000000000000000000000000000_0001011_1_0000_000
00000000000000000000000000000000000000000000000000_0000000_1_0000_000
00000000000000000000000000000000000000000000000000_0001010_1_0000_000
00000000000000000000000000000000000000000000000000_0001010_1_0000_000
00000000000000000000000000000000000000000000000000_0001010_1_0000_000
00000000000000000000000000000000000000000000000000_0000000_1_0000_000
00000000000000000000000000000000000000000000000000_0001010_1_0000_000
00000000000000000000000000000000000000000000000000_0001010_1_0000_000
00000000000000000000000000000000000000000000000000_0001010_1_0000_000
