00000000000000000000000000000000000000000000000000_0000000_1_0000_000
00000000000000000000000000000000000000000000000000_0000000_1_0000_000
00001000000000000000000000000000000000000000000000_0000101_1_1000_001
01100000000000100000001000000000000000000000000000_0010111_1_0000_000
00110000000000000000000000000000000000000000000000_0000111_1_1100_010
10000000000000000000000000000000000000000000000000_0000001_1_0000_000
00011000000000000000000000000000000000000000000000_0000101_1_0000_001
11100000000000000000000000000000000000000000000000_0000100_1_0000_000
00010000000000000000000000000000000000000000000000_0000101_1_1000_001
00011000000000000000000000000000000000000000000000_0000101_1_1000_001
00011000000000000000000000000000000000000000000000_0000101_1_1000_001
11110000000000000000000000000000000000000000000000_0000100_1_0000_000
01010110100000000000000000000000000000000000000000_0001010_1_0000_011
01101000100100010000000000000000000000000000000000_0010000_1_0011_100
01011100000100000000000000000000000000000000000000_0001100_1_1000_010
01101110011001000000011100000000000000000000000000_0011001_1_0000_000
00111100000000000000000000000000000000000000000000_0000111_1_0000_100
00111000000000000000000000000000000000000000000000_0000111_1_0010_011
10000000000000000000000000000000000000000000000000_0000001_1_0000_000
01010000100000001000000000000000000000000000000000_0010001_1_0000_000
00111100000000000000000000000000000000000000000000_0000111_1_0000_100
00011000000000000000000000000000000000000000000000_0000101_1_0000_001
10000000000000000000000000000000000000000000000000_0000001_1_0000_000
01000001000000000000000000000000000000000000000000_0001110_1_0000_000
01010000100000000000000000000000000000000000000000_0001010_1_0000_010
00001000000000000000000000000000000000000000000000_0000101_1_1000_001
00010000000000000000000000000000000000000000000000_0000101_1_1000_001
01000110100110000000000000000000000000000000000000_0001101_1_0000_000
00001000000000000000000000000000000000000000000000_0000101_1_0000_001
10000000000000000000000000000000000000000000000000_0000001_1_0000_000
10000000000000000000000000000000000000000000000000_0000001_1_0000_000
10000000000000000000000000000000000000000000000000_0000010_1_0000_000
00001000000000000000000000000000000000000000000000_0000101_1_0000_001
10000000000000000000000000000000000000000000000000_0000001_1_0000_000
10000000000000000000000000000000000000000000000000_0000001_1_0000_000
10000000000000000000000000000000000000000000000000_0000010_1_0000_000
01000000000000000000000000000000000000000000000000_0001001_1_1000_001
10000000000000000000000000000000000000000000000000_0000001_1_0000_000
01100001010000000000000000000000000000000000000000_0010000_1_0000_001
01100111100000001000000000000000000000000000000000_0010010_1_0000_000
10000000000000000000000000000000000000000000000000_0000001_1_0000_000
10000000000000000000000000000000000000000000000000_0000001_1_0000_000
00100000000000000000000000000000000000000000000000_0000110_1_0000_010
01000000000000000000000000000000000000000000000000_0001011_1_0000_000
10000000000000000000000000000000000000000000000000_0000001_1_0000_000
10000000000000000000000000000000000000000000000000_0000001_1_0000_000
10000000000000000000000000000000000000000000000000_0000001_1_0000_000
01000011100000000000000000000000000000000000000000_0001001_1_0000_000
01001001100000000000000000000000000000000000000000_0001001_1_0000_001
01001111000000000000000000000000000000000000000000_0001001_1_1110_011
01000001000000000000000000000000000000000000000000_0001001_1_0000_001
10111000000000000000000000000000000000000000000000_0000110_1_0000_000
00001000000000000000000000000000000000000000000000_0000101_1_0000_001
10000000000000000000000000000000000000000000000000_0000001_1_0000_000
10000000000000000000000000000000000000000000000000_0000001_1_0000_000
10000000000000000000000000000000000000000000000000_0000010_1_0000_000
00001000000000000000000000000000000000000000000000_0000101_1_0000_001
10000000000000000000000000000000000000000000000000_0000001_1_0000_000
10000000000000000000000000000000000000000000000000_0000001_1_0000_000
01000001100000000000000000000000000000000000000000_0001010_1_0000_000
01010010110000000000000000000000000000000000000000_0001010_1_0100_010
00111000000000000000000000000000000000000000000000_0000111_1_1110_011
01010000110000000000000000000000000000000000000000_0001010_1_0000_010
01001110101111000000000000000000000000000000000000_0010000_1_0000_000
10000000000000000000000000000000000000000000000000_0000001_1_0000_000
10000000000000000000000000000000000000000000000000_0000001_1_0000_000
00010000000000000000000000000000000000000000000000_0000101_1_1000_001
01000110110000000000000000000000000000000000000000_0001010_1_0000_000
00011000000000000000000000000000000000000000000000_0000101_1_0000_001
10000000000000000000000000000000000000000000000000_0000001_1_0000_000
10000000000000000000000000000000000000000000000000_0000001_1_0000_000
00101000000000000000000000000000000000000000000000_0000110_1_0000_000
00010000000000000000000000000000000000000000000000_0000101_1_0000_001
01010010100000000000000000000000000000000000000000_0001010_1_0000_010
00111010000000000000000000000000000000000000000000_0000111_1_1100_011
01001101000011000000000000000000000000000000000000_0001111_1_0000_000
00100100000000000000000000000000000000000000000000_0000110_1_0000_010
10000000000000000000000000000000000000000000000000_0000001_1_0000_000
00111010000000000000000000000000000000000000000000_0000111_1_1110_011
10011100000000000000000000000000000000000000000000_0000110_1_0000_000
10000000000000000000000000000000000000000000000000_0000001_1_0000_000
10000000000000000000000000000000000000000000000000_0000001_1_0000_000
00100000000000000000000000000000000000000000000000_0000110_1_0000_010
10000000000000000000000000000000000000000000000000_0000011_1_0000_000
00100100000000000000000000000000000000000000000000_0000110_1_0000_010
01000010100000000000000000000000000000000000000000_0001001_1_1000_010
01010111000000000000000000000000000000000000000000_0001010_1_1010_011
01100000010000100010101000000000000000000000000000_0010111_1_0000_000
10000000000000000000000000000000000000000000000000_0000001_1_0000_000
10000000000000000000000000000000000000000000000000_0000001_1_0000_000
10000000000000000000000000000000000000000000000000_0000001_1_0000_000
00010000000000000000000000000000000000000000000000_0000100_1_0000_000
00000000000000000000000000000000000000000000000000_0000000_1_0000_000
00000000000000000000000000000000000000000000000000_0000000_1_0000_000
00000000000000000000000000000000000000000000000000_0000000_1_0000_000
00000000000000000000000000000000000000000000000000_0000000_1_0000_000
01000111000000000000000000000000000000000000000000_0001001_1_1100_010
00001000000000000000000000000000000000000000000000_0000101_1_0000_001
00110110000000000000000000000000000000000000000000_0000111_1_1110_011
00101110111000000000000000000000000000000000000000_0001011_1_0000_000
00000000000000000000000000000000000000000000000000_0000000_1_0000_000
00000000000000000000000000000000000000000000000000_0000000_1_0000_000
00000000000000000000000000000000000000000000000000_0000000_1_0000_000
00000000000000000000000000000000000000000000000000_0000000_1_0000_000
00000000000000000000000000000000000000000000000000_0000000_1_0000_000
00000000000000000000000000000000000000000000000000_0000000_1_0000_000
00000000000000000000000000000000000000000000000000_0000000_1_0000_000
00000000000000000000000000000000000000000000000000_0000000_1_0000_000
01011110010010000000000000000000000000000000000000_0001101_1_0110_011
00011000000000000000000000000000000000000000000000_0000101_1_0000_001
00111000000000000000000000000000000000000000000000_0000111_1_0010_011
01100000010010100110001000000000000000000000000000_0010111_1_0000_000
00000000000000000000000000000000000000000000000000_0000000_1_0000_000
00000000000000000000000000000000000000000000000000_0000000_1_0000_000
00000000000000000000000000000000000000000000000000_0000000_1_0000_000
00000000000000000000000000000000000000000000000000_0000000_1_0000_000
00000000000000000000000000000000000000000000000000_0000000_1_0000_000
00000000000000000000000000000000000000000000000000_0000000_1_0000_000
00000000000000000000000000000000000000000000000000_0000000_1_0000_000
00000000000000000000000000000000000000000000000000_0000000_1_0000_000
00000000000000000000000000000000000000000000000000_0000101_1_1000_001
00100100000000000000000000000000000000000000000000_0000110_1_1000_010
01011111011011000000000000000000000000000000000000_0001110_1_1010_100
01100100110010101101010000000000000000000000000000_0010111_1_0000_000
10000000000000000000000000000000000000000000000000_0000001_1_0000_000
00100100000000000000000000000000000000000000000000_0000110_1_0000_010
00011000000000000000000000000000000000000000000000_0000101_1_0000_001
10000000000000000000000000000000000000000000000000_0000100_1_0000_000
00000000000000000000000000000000000000000000000000_0000000_1_0000_000
00000000000000000000000000000000000000000000000000_0000000_1_0000_000
00000000000000000000000000000000000000000000000000_0000000_1_0000_000
00000000000000000000000000000000000000000000000000_0000000_1_0000_000
01010000110000000000000000000000000000000000000000_0001010_1_1000_010
01010010010000000000000000000000000000000000000000_0001010_1_0000_010
10000000000000000000000000000000000000000000000000_0000001_1_0000_000
01000011110000000000000000000000000000000000000000_0001101_1_0000_000
00000000000000000000000000000000000000000000000000_0000000_1_0000_000
00000000000000000000000000000000000000000000000000_0000000_1_0000_000
00000000000000000000000000000000000000000000000000_0000000_1_0000_000
00000000000000000000000000000000000000000000000000_0000000_1_0000_000
00000000000000000000000000000000000000000000000000_0000000_1_0000_000
00000000000000000000000000000000000000000000000000_0000000_1_0000_000
00000000000000000000000000000000000000000000000000_0000000_1_0000_000
00000000000000000000000000000000000000000000000000_0000000_1_0000_000
00110110000000000000000000000000000000000000000000_0000111_1_1110_011
10000000000000000000000000000000000000000000000000_0000001_1_0000_000
00011000000000000000000000000000000000000000000000_0000101_1_0000_001
01011000110111000000000000000000000000000000000000_0001111_1_0000_000
00000000000000000000000000000000000000000000000000_0000000_1_0000_000
00000000000000000000000000000000000000000000000000_0000000_1_0000_000
00000000000000000000000000000000000000000000000000_0000000_1_0000_000
00000000000000000000000000000000000000000000000000_0000000_1_0000_000
00000000000000000000000000000000000000000000000000_0000000_1_0000_000
00000000000000000000000000000000000000000000000000_0000000_1_0000_000
00000000000000000000000000000000000000000000000000_0000000_1_0000_000
00000000000000000000000000000000000000000000000000_0000000_1_0000_000
00100100000000000000000000000000000000000000000000_0000110_1_0000_010
00110010000000000000000000000000000000000000000000_0000111_1_0100_010
01001111100000000000000000000000000000000000000000_0001001_1_1000_011
01110101100010000000000011000000000000000000000000_0011100_1_0000_000
10000000000000000000000000000000000000000000000000_0000001_1_0000_000
00000000000000000000000000000000000000000000000000_0000101_1_1000_001
00111000000000000000000000000000000000000000000000_0000111_1_1000_011
01101110000100101100000000000000000000000000000000_0010100_1_0000_000
00000000000000000000000000000000000000000000000000_0000000_1_0000_000
00000000000000000000000000000000000000000000000000_0000000_1_0000_000
00000000000000000000000000000000000000000000000000_0000000_1_0000_000
00000000000000000000000000000000000000000000000000_0000000_1_0000_000
00010000000000000000000000000000000000000000000000_0000101_1_0000_001
00010000000000000000000000000000000000000000000000_0000101_1_1000_001
01010011100000000000000000000000000000000000000000_0001010_1_1100_010
01011100101001110000000000000000000000000000000000_0010000_1_0000_000
00010000000000000000000000000000000000000000000000_0000101_1_0000_001
10000000000000000000000000000000000000000000000000_0000001_1_0000_000
00000000000000000000000000000000000000000000000000_0000101_1_1000_001
10100000000000000000000000000000000000000000000000_0000011_1_0000_000
10000000000000000000000000000000000000000000000000_0000001_1_0000_000
00010000000000000000000000000000000000000000000000_0000101_1_1000_001
10000000000000000000000000000000000000000000000000_0000001_1_0000_000
11000000000000000000000000000000000000000000000000_0000010_1_0000_000
01000100000000000000000000000000000000000000000000_0001001_1_1000_010
01011001110000000000000000000000000000000000000000_0001011_1_0100_011
00011000000000000000000000000000000000000000000000_0000101_1_0000_001
01110000100100101011110010000000000000000000000000_0011011_1_0000_000
00010000000000000000000000000000000000000000000000_0000101_1_0000_001
10000000000000000000000000000000000000000000000000_0000001_1_0000_000
00101000000000000000000000000000000000000000000000_0000110_1_1100_010
01100000100000000110000000000000000000000000000000_0010011_1_0000_000
00001000000000000000000000000000000000000000000000_0000101_1_1000_001
10000000000000000000000000000000000000000000000000_0000001_1_0000_000
00001000000000000000000000000000000000000000000000_0000101_1_0000_001
11000000000000000000000000000000000000000000000000_0000011_1_0000_000
00011000000000000000000000000000000000000000000000_0000101_1_0000_001
01010000000000000000000000000000000000000000000000_0001010_1_0111_100
00010000000000000000000000000000000000000000000000_0000101_1_1000_001
10011110000000000000000000000000000000000000000000_0000111_1_0000_000
10000000000000000000000000000000000000000000000000_0000001_1_0000_000
00001000000000000000000000000000000000000000000000_0000101_1_1000_001
10000000000000000000000000000000000000000000000000_0000001_1_0000_000
11000000000000000000000000000000000000000000000000_0000010_1_0000_000
00010000000000000000000000000000000000000000000000_0000101_1_0000_001
00001000000000000000000000000000000000000000000000_0000101_1_1000_001
10000000000000000000000000000000000000000000000000_0000001_1_0000_000
10100000000000000000000000000000000000000000000000_0000011_1_0000_000
00011000000000000000000000000000000000000000000000_0000101_1_0000_001
01011111000011000000000000000000000000000000000000_0001110_1_0000_011
01000100000000000000000000000000000000000000000000_0001001_1_1100_010
01100101111111100000110000000000000000000000000000_0010110_1_0000_000
10000000000000000000000000000000000000000000000000_0000001_1_0000_000
00001000000000000000000000000000000000000000000000_0000101_1_0000_001
00010000000000000000000000000000000000000000000000_0000101_1_0000_001
01000101000000000000000000000000000000000000000000_0001011_1_0000_000
10000000000000000000000000000000000000000000000000_0000001_1_0000_000
00001000000000000000000000000000000000000000000000_0000101_1_0000_001
10000000000000000000000000000000000000000000000000_0000001_1_0000_000
10000000000000000000000000000000000000000000000000_0000010_1_0000_000
00001000000000000000000000000000000000000000000000_0000101_1_1000_001
00001000000000000000000000000000000000000000000000_0000101_1_0000_001
00000000000000000000000000000000000000000000000000_0000101_1_0000_001
00101100000000000000000000000000000000000000000000_0001000_1_0000_000
10000000000000000000000000000000000000000000000000_0000001_1_0000_000
10000000000000000000000000000000000000000000000000_0000001_1_0000_000
10000000000000000000000000000000000000000000000000_0000001_1_0000_000
00111110000000000000000000000000000000000000000000_0001001_1_0000_000
10000000000000000000000000000000000000000000000000_0000001_1_0000_000
00000000000000000000000000000000000000000000000000_0000101_1_0000_001
00000000000000000000000000000000000000000000000000_0000101_1_0000_001
01000000000000000000000000000000000000000000000000_0001011_1_0000_000
00111000000000000000000000000000000000000000000000_0000111_1_1100_011
00111000000000000000000000000000000000000000000000_0000111_1_1000_011
00000000000000000000000000000000000000000000000000_0000101_1_1000_001
11101001000000000000000000000000000000000000000000_0001000_1_0000_000
00000000000000000000000000000000000000000000000000_0000101_1_0000_001
10000000000000000000000000000000000000000000000000_0000001_1_0000_000
10000000000000000000000000000000000000000000000000_0000001_1_0000_000
10000000000000000000000000000000000000000000000000_0000010_1_0000_000
00000000000000000000000000000000000000000000000000_0000000_1_0000_000
00000000000000000000000000000000000000000000000000_0000000_1_0000_000
00000000000000000000000000000000000000000000000000_0000000_1_0000_000
00000000000000000000000000000000000000000000000000_0000000_1_0000_000
01000011100000000000000000000000000000000000000000_0001001_1_0000_010
01010001100000000000000000000000000000000000000000_0001010_1_1111_100
00000000000000000000000000000000000000000000000000_0000101_1_1000_001
10011111000000000000000000000000000000000000000000_0001000_1_0000_000
10000000000000000000000000000000000000000000000000_0000001_1_0000_000
10000000000000000000000000000000000000000000000000_0000001_1_0000_000
00000000000000000000000000000000000000000000000000_0000101_1_0000_001
10000000000000000000000000000000000000000000000000_0000010_1_0000_000
00000000000000000000000000000000000000000000000000_0000000_1_0000_000
00000000000000000000000000000000000000000000000000_0000000_1_0000_000
00000000000000000000000000000000000000000000000000_0000000_1_0000_000
00000000000000000000000000000000000000000000000000_0000000_1_0000_000
10000000000000000000000000000000000000000000000000_0000001_1_0000_000
10000000000000000000000000000000000000000000000000_0000001_1_0000_000
00110010000000000000000000000000000000000000000000_0000111_1_0100_010
01001000101000000000000000000000000000000000000000_0001011_1_0000_000
00000000000000000000000000000000000000000000000000_0000000_1_0000_000
00000000000000000000000000000000000000000000000000_0000000_1_0000_000
00000000000000000000000000000000000000000000000000_0000000_1_0000_000
00000000000000000000000000000000000000000000000000_0000000_1_0000_000
00000000000000000000000000000000000000000000000000_0000000_1_0000_000
00000000000000000000000000000000000000000000000000_0000000_1_0000_000
00000000000000000000000000000000000000000000000000_0000000_1_0000_000
00000000000000000000000000000000000000000000000000_0000000_1_0000_000
01000110000000000000000000000000000000000000000000_0001001_1_0000_010
01001100100000000000000000000000000000000000000000_0001001_1_1000_011
01100110010001100000000000000000000000000000000000_0010000_1_0110_011
01100101001011110010001100000000000000000000000000_0011000_1_0000_000
10000000000000000000000000000000000000000000000000_0000001_1_0000_000
00101000000000000000000000000000000000000000000000_0000110_1_0000_010
00100000000000000000000000000000000000000000000000_0000110_1_0000_010
10000000000000000000000000000000000000000000000000_0000101_1_0000_000
10000000000000000000000000000000000000000000000000_0000001_1_0000_000
00001000000000000000000000000000000000000000000000_0000101_1_1000_001
10000000000000000000000000000000000000000000000000_0000001_1_0000_000
11000000000000000000000000000000000000000000000000_0000010_1_0000_000
00101000000000000000000000000000000000000000000000_0000110_1_0100_010
00100000000000000000000000000000000000000000000000_0000110_1_1100_010
01001011000000000000000000000000000000000000000000_0001001_1_1000_011
01000000001111000000000000000000000000000000000000_0010000_1_0000_000
10000000000000000000000000000000000000000000000000_0000001_1_0000_000
00101000000000000000000000000000000000000000000000_0000110_1_0000_010
10000000000000000000000000000000000000000000000000_0000001_1_0000_000
00101000000000000000000000000000000000000000000000_0000111_1_0000_000
10000000000000000000000000000000000000000000000000_0000001_1_0000_000
00011000000000000000000000000000000000000000000000_0000101_1_0000_001
00000000000000000000000000000000000000000000000000_0000101_1_0000_001
00101000000000000000000000000000000000000000000000_0000111_1_0000_000
01000010100000000000000000000000000000000000000000_0001001_1_0000_010
01000001100000000000000000000000000000000000000000_0001001_1_0000_001
01000011100000000000000000000000000000000000000000_0001001_1_1100_010
01000001000011000000000000000000000000000000000000_0001110_1_0000_000
00000000000000000000000000000000000000000000000000_0000000_1_0000_000
00000000000000000000000000000000000000000000000000_0000000_1_0000_000
00000000000000000000000000000000000000000000000000_0000000_1_0000_000
00000000000000000000000000000000000000000000000000_0000000_1_0000_000
00110010000000000000000000000000000000000000000000_0000111_1_0000_010
10000000000000000000000000000000000000000000000000_0000001_1_0000_000
10000000000000000000000000000000000000000000000000_0000001_1_0000_000
00000000000000000000000000000000000000000000000000_0000110_1_0000_000
01011010100000000000000000000000000000000000000000_0001011_1_1000_010
00110100000000000000000000000000000000000000000000_0000111_1_0010_011
10000000000000000000000000000000000000000000000000_0000001_1_0000_000
01000011010001000000000000000000000000000000000000_0001110_1_0000_000
00101100000000000000000000000000000000000000000000_0000110_1_0000_010
10000000000000000000000000000000000000000000000000_0000001_1_0000_000
10000000000000000000000000000000000000000000000000_0000001_1_0000_000
10000000000000000000000000000000000000000000000000_0000011_1_0000_000
10000000000000000000000000000000000000000000000000_0000001_1_0000_000
00110010000000000000000000000000000000000000000000_0000111_1_1100_010
10000000000000000000000000000000000000000000000000_0000001_1_0000_000
11100000000000000000000000000000000000000000000000_0000011_1_0000_000
00110010000000000000000000000000000000000000000000_0000111_1_1100_010
01000100100000000000000000000000000000000000000000_0001001_1_0000_010
00110100000000000000000000000000000000000000000000_0000111_1_1100_011
00101110011000000000000000000000000000000000000000_0001100_1_0000_000
00000000000000000000000000000000000000000000000000_0000000_1_0000_000
00000000000000000000000000000000000000000000000000_0000000_1_0000_000
00000000000000000000000000000000000000000000000000_0000000_1_0000_000
00000000000000000000000000000000000000000000000000_0000000_1_0000_000
00000000000000000000000000000000000000000000000000_0000000_1_0000_000
00000000000000000000000000000000000000000000000000_0000000_1_0000_000
00000000000000000000000000000000000000000000000000_0000000_1_0000_000
00000000000000000000000000000000000000000000000000_0000000_1_0000_000
00111010000000000000000000000000000000000000000000_0000111_1_1000_011
00111010000000000000000000000000000000000000000000_0000111_1_0100_011
00101000000000000000000000000000000000000000000000_0000110_1_0000_010
11000100000000000000000000000000000000000000000000_0001001_1_0000_000
00000000000000000000000000000000000000000000000000_0000000_1_0000_000
00000000000000000000000000000000000000000000000000_0000000_1_0000_000
00000000000000000000000000000000000000000000000000_0000000_1_0000_000
00000000000000000000000000000000000000000000000000_0000000_1_0000_000
00000000000000000000000000000000000000000000000000_0000000_1_0000_000
00000000000000000000000000000000000000000000000000_0000000_1_0000_000
00000000000000000000000000000000000000000000000000_0000000_1_0000_000
00000000000000000000000000000000000000000000000000_0000000_1_0000_000
01000001100000000000000000000000000000000000000000_0001001_1_0000_001
00111100000000000000000000000000000000000000000000_0000111_1_0110_100
01001010000000000000000000000000000000000000000000_0001001_1_1100_011
00010011011000000000000000000000000000000000000000_0001100_1_0000_000
10000000000000000000000000000000000000000000000000_0000001_1_0000_000
00100000000000000000000000000000000000000000000000_0000110_1_0000_010
10000000000000000000000000000000000000000000000000_0000001_1_0000_000
10000000000000000000000000000000000000000000000000_0000011_1_0000_000
00111010000000000000000000000000000000000000000000_0000111_1_0000_011
10000000000000000000000000000000000000000000000000_0000001_1_0000_000
10000000000000000000000000000000000000000000000000_0000001_1_0000_000
01000010100000000000000000000000000000000000000000_0001100_1_0000_000
01011000000000000000000000000000000000000000000000_0001011_1_1100_011
01011110111000000000000000000000000000000000000000_0001101_1_0000_011
01101110010100110000000000000000000000000000000000_0010000_1_0101_100
01110000100111110010011000001010000000000000000000_0011111_1_0000_000
00111010000000000000000000000000000000000000000000_0000111_1_1110_011
01010111000000000000000000000000000000000000000000_0001010_1_0000_011
00100000000000000000000000000000000000000000000000_0000110_1_0000_010
11110000000000000000000000000000000000000000000000_0001001_1_0000_000
00101100000000000000000000000000000000000000000000_0000110_1_0000_010
00000000000000000000000000000000000000000000000000_0000101_1_0000_001
00010000000000000000000000000000000000000000000000_0000101_1_1000_001
10001000000000000000000000000000000000000000000000_0000101_1_0000_000
01011111110011100000000000000000000000000000000000_0001111_1_1010_100
01100011000100010000000000000000000000000000000000_0010000_1_1111_100
01011010011000000000000000000000000000000000000000_0001011_1_0000_100
01001100010101111000000000000000000000000000000000_0010101_1_0000_000
00010000000000000000000000000000000000000000000000_0000101_1_0000_001
10000000000000000000000000000000000000000000000000_0000001_1_0000_000
10000000000000000000000000000000000000000000000000_0000001_1_0000_000
10000000000000000000000000000000000000000000000000_0000010_1_0000_000
00010000000000000000000000000000000000000000000000_0000101_1_0000_001
00001000000000000000000000000000000000000000000000_0000101_1_0000_001
00001000000000000000000000000000000000000000000000_0000101_1_0000_001
10000000000000000000000000000000000000000000000000_0000100_1_0000_000
00110100000000000000000000000000000000000000000000_0000111_1_1000_011
00101000000000000000000000000000000000000000000000_0000110_1_0000_010
00010000000000000000000000000000000000000000000000_0000101_1_0000_001
11000000000000000000000000000000000000000000000000_0000111_1_0000_000
00000000000000000000000000000000000000000000000000_0000000_1_0000_000
00000000000000000000000000000000000000000000000000_0000000_1_0000_000
00000000000000000000000000000000000000000000000000_0000000_1_0000_000
00000000000000000000000000000000000000000000000000_0000000_1_0000_000
00000000000000000000000000000000000000000000000000_0000000_1_0000_000
00000000000000000000000000000000000000000000000000_0000000_1_0000_000
00000000000000000000000000000000000000000000000000_0000000_1_0000_000
00000000000000000000000000000000000000000000000000_0000000_1_0000_000
00110100000000000000000000000000000000000000000000_0000111_1_0000_011
10000000000000000000000000000000000000000000000000_0000001_1_0000_000
00010000000000000000000000000000000000000000000000_0000101_1_0000_001
00101000000000000000000000000000000000000000000000_0001001_1_0000_000
00000000000000000000000000000000000000000000000000_0000000_1_0000_000
00000000000000000000000000000000000000000000000000_0000000_1_0000_000
00000000000000000000000000000000000000000000000000_0000000_1_0000_000
00000000000000000000000000000000000000000000000000_0000000_1_0000_000
00000000000000000000000000000000000000000000000000_0000000_1_0000_000
00000000000000000000000000000000000000000000000000_0000000_1_0000_000
00000000000000000000000000000000000000000000000000_0000000_1_0000_000
00000000000000000000000000000000000000000000000000_0000000_1_0000_000
00000000000000000000000000000000000000000000000000_0000101_1_1000_001
00001000000000000000000000000000000000000000000000_0000101_1_0000_001
00011000000000000000000000000000000000000000000000_0000101_1_0000_001
11000000000000000000000000000000000000000000000000_0000100_1_0000_000
00000000000000000000000000000000000000000000000000_0000000_1_0000_000
00000000000000000000000000000000000000000000000000_0000000_1_0000_000
00000000000000000000000000000000000000000000000000_0000000_1_0000_000
00000000000000000000000000000000000000000000000000_0000000_1_0000_000
00000000000000000000000000000000000000000000000000_0000000_1_0000_000
00000000000000000000000000000000000000000000000000_0000000_1_0000_000
00000000000000000000000000000000000000000000000000_0000000_1_0000_000
00000000000000000000000000000000000000000000000000_0000000_1_0000_000
10000000000000000000000000000000000000000000000000_0000001_1_0000_000
00010000000000000000000000000000000000000000000000_0000101_1_0000_001
00001000000000000000000000000000000000000000000000_0000101_1_1000_001
00010100000000000000000000000000000000000000000000_0000110_1_0000_000
00000000000000000000000000000000000000000000000000_0000000_1_0000_000
00000000000000000000000000000000000000000000000000_0000000_1_0000_000
00000000000000000000000000000000000000000000000000_0000000_1_0000_000
00000000000000000000000000000000000000000000000000_0000000_1_0000_000
00000000000000000000000000000000000000000000000000_0000000_1_0000_000
00000000000000000000000000000000000000000000000000_0000000_1_0000_000
00000000000000000000000000000000000000000000000000_0000000_1_0000_000
00000000000000000000000000000000000000000000000000_0000000_1_0000_000
10000000000000000000000000000000000000000000000000_0000001_1_0000_000
10000000000000000000000000000000000000000000000000_0000001_1_0000_000
00001000000000000000000000000000000000000000000000_0000101_1_1000_001
00101100000000000000000000000000000000000000000000_0000110_1_0000_000
10000000000000000000000000000000000000000000000000_0000001_1_0000_000
00101000000000000000000000000000000000000000000000_0000110_1_1000_010
10000000000000000000000000000000000000000000000000_0000001_1_0000_000
01000001010000000000000000000000000000000000000000_0001011_1_0000_000
00000000000000000000000000000000000000000000000000_0000101_1_0000_001
00001000000000000000000000000000000000000000000000_0000101_1_0000_001
00111010000000000000000000000000000000000000000000_0000111_1_0000_011
10000000000000000000000000000000000000000000000000_0000110_1_0000_000
01001011000000000000000000000000000000000000000000_0001001_1_1100_011
00001000000000000000000000000000000000000000000000_0000101_1_1000_001
10000000000000000000000000000000000000000000000000_0000001_1_0000_000
11101000000000000000000000000000000000000000000000_0000101_1_0000_000
00000000000000000000000000000000000000000000000000_0000000_1_0000_000
00000000000000000000000000000000000000000000000000_0000000_1_0000_000
00000000000000000000000000000000000000000000000000_0000000_1_0000_000
00000000000000000000000000000000000000000000000000_0000000_1_0000_000
00000000000000000000000000000000000000000000000000_0000000_1_0000_000
00000000000000000000000000000000000000000000000000_0000000_1_0000_000
00000000000000000000000000000000000000000000000000_0000000_1_0000_000
00000000000000000000000000000000000000000000000000_0000000_1_0000_000
01100000010011010000000000000000000000000000000000_0010000_1_1000_011
01011110011000000000000000000000000000000000000000_0001101_1_1111_100
00010000000000000000000000000000000000000000000000_0000101_1_1000_001
00001001111100000000000000000000000000000000000000_0001100_1_0000_000
10000000000000000000000000000000000000000000000000_0000001_1_0000_000
00110100000000000000000000000000000000000000000000_0000111_1_1110_011
00010000000000000000000000000000000000000000000000_0000101_1_1000_001
11111000000000000000000000000000000000000000000000_0000101_1_0000_000
00000000000000000000000000000000000000000000000000_0000000_1_0000_000
00000000000000000000000000000000000000000000000000_0000000_1_0000_000
00000000000000000000000000000000000000000000000000_0000000_1_0000_000
00000000000000000000000000000000000000000000000000_0000000_1_0000_000
00010000000000000000000000000000000000000000000000_0000101_1_0000_001
10000000000000000000000000000000000000000000000000_0000001_1_0000_000
00100000000000000000000000000000000000000000000000_0000110_1_0100_010
01001110000100000000000000000000000000000000000000_0001100_1_0000_000
00101100000000000000000000000000000000000000000000_0000110_1_0000_010
00001000000000000000000000000000000000000000000000_0000101_1_0000_001
10000000000000000000000000000000000000000000000000_0000001_1_0000_000
10000000000000000000000000000000000000000000000000_0000100_1_0000_000
00000000000000000000000000000000000000000000000000_0000000_1_0000_000
00000000000000000000000000000000000000000000000000_0000000_1_0000_000
00000000000000000000000000000000000000000000000000_0000000_1_0000_000
00000000000000000000000000000000000000000000000000_0000000_1_0000_000
00011000000000000000000000000000000000000000000000_0000101_1_0000_001
00010000000000000000000000000000000000000000000000_0000101_1_0000_001
00110010000000000000000000000000000000000000000000_0000111_1_0000_010
01000000000000000000000000000000000000000000000000_0001101_1_0000_000
00000000000000000000000000000000000000000000000000_0000000_1_0000_000
00000000000000000000000000000000000000000000000000_0000000_1_0000_000
00000000000000000000000000000000000000000000000000_0000000_1_0000_000
00000000000000000000000000000000000000000000000000_0000000_1_0000_000
10000000000000000000000000000000000000000000000000_0000001_1_0000_000
10000000000000000000000000000000000000000000000000_0000001_1_0000_000
10000000000000000000000000000000000000000000000000_0000001_1_0000_000
01000000100000000000000000000000000000000000000000_0001001_1_0000_000
00100000000000000000000000000000000000000000000000_0000110_1_1100_010
00110110000000000000000000000000000000000000000000_0000111_1_1110_011
01010000000000000000000000000000000000000000000000_0001010_1_0011_100
01101111110100001111100110000000000000000000000000_0011001_1_0000_000
00000000000000000000000000000000000000000000000000_0000000_1_0000_000
00000000000000000000000000000000000000000000000000_0000000_1_0000_000
00000000000000000000000000000000000000000000000000_0000000_1_0000_000
00000000000000000000000000000000000000000000000000_0000000_1_0000_000
10000000000000000000000000000000000000000000000000_0000001_1_0000_000
10000000000000000000000000000000000000000000000000_0000001_1_0000_000
00010000000000000000000000000000000000000000000000_0000101_1_0000_001
10000000000000000000000000000000000000000000000000_0000010_1_0000_000
00111010000000000000000000000000000000000000000000_0000111_1_0100_011
01000110100000000000000000000000000000000000000000_0001001_1_1000_010
00000000000000000000000000000000000000000000000000_0000101_1_1000_001
10101010000000000000000000000000000000000000000000_0000111_1_0000_000
00111100000000000000000000000000000000000000000000_0000111_1_0000_100
00000000000000000000000000000000000000000000000000_0000101_1_0000_001
10000000000000000000000000000000000000000000000000_0000001_1_0000_000
10000000000000000000000000000000000000000000000000_0000110_1_0000_000
00000000000000000000000000000000000000000000000000_0000000_1_0000_000
00000000000000000000000000000000000000000000000000_0000000_1_0000_000
00000000000000000000000000000000000000000000000000_0000000_1_0000_000
00000000000000000000000000000000000000000000000000_0000000_1_0000_000
10000000000000000000000000000000000000000000000000_0000001_1_0000_000
00010000000000000000000000000000000000000000000000_0000101_1_0000_001
00110010000000000000000000000000000000000000000000_0000111_1_1000_010
00101010000000000000000000000000000000000000000000_0001000_1_0000_000
00000000000000000000000000000000000000000000000000_0000000_1_0000_000
00000000000000000000000000000000000000000000000000_0000000_1_0000_000
00000000000000000000000000000000000000000000000000_0000000_1_0000_000
00000000000000000000000000000000000000000000000000_0000000_1_0000_000
00010000000000000000000000000000000000000000000000_0000101_1_1000_001
10000000000000000000000000000000000000000000000000_0000001_1_0000_000
10000000000000000000000000000000000000000000000000_0000001_1_0000_000
01000000010000000000000000000000000000000000000000_0001010_1_0000_000
01001110000000000000000000000000000000000000000000_0001001_1_1000_001
01010101010000000000000000000000000000000000000000_0001010_1_0100_010
01011000111000000000000000000000000000000000000000_0001011_1_0110_011
01000010010101100000000000000000000000000000000000_0001111_1_0000_000
10000000000000000000000000000000000000000000000000_0000001_1_0000_000
00110010000000000000000000000000000000000000000000_0000111_1_0100_010
01000111100000000000000000000000000000000000000000_0001001_1_0100_010
10101000000000000000000000000000000000000000000000_0000101_1_0000_000
10000000000000000000000000000000000000000000000000_0000001_1_0000_000
00011000000000000000000000000000000000000000000000_0000101_1_0000_001
00010000000000000000000000000000000000000000000000_0000101_1_1000_001
10100000000000000000000000000000000000000000000000_0000011_1_0000_000
01001100000000000000000000000000000000000000000000_0001001_1_0100_011
00011000000000000000000000000000000000000000000000_0000101_1_0000_001
00000000000000000000000000000000000000000000000000_0000101_1_0000_001
00000100000000000000000000000000000000000000000000_0001001_1_0000_000
00101000000000000000000000000000000000000000000000_0000110_1_1100_010
00101100000000000000000000000000000000000000000000_0000110_1_0100_010
00000000000000000000000000000000000000000000000000_0000101_1_0000_001
00011101000000000000000000000000000000000000000000_0001001_1_0000_000
10000000000000000000000000000000000000000000000000_0000001_1_0000_000
10000000000000000000000000000000000000000000000000_0000001_1_0000_000
00001000000000000000000000000000000000000000000000_0000101_1_1000_001
11000000000000000000000000000000000000000000000000_0000010_1_0000_000
00010000000000000000000000000000000000000000000000_0000101_1_1000_001
00010000000000000000000000000000000000000000000000_0000101_1_0000_001
00100100000000000000000000000000000000000000000000_0000110_1_0000_010
01010010111000000000000000000000000000000000000000_0001110_1_0000_000
00000000000000000000000000000000000000000000000000_0000000_1_0000_000
00000000000000000000000000000000000000000000000000_0000000_1_0000_000
00000000000000000000000000000000000000000000000000_0000000_1_0000_000
00000000000000000000000000000000000000000000000000_0000000_1_0000_000
00000000000000000000000000000000000000000000000000_0000000_1_0000_000
00000000000000000000000000000000000000000000000000_0000000_1_0000_000
00000000000000000000000000000000000000000000000000_0000000_1_0000_000
00000000000000000000000000000000000000000000000000_0000000_1_0000_000
00110000000000000000000000000000000000000000000000_0000111_1_0000_010
10000000000000000000000000000000000000000000000000_0000001_1_0000_000
10000000000000000000000000000000000000000000000000_0000001_1_0000_000
00101000000000000000000000000000000000000000000000_0000111_1_0000_000
00000000000000000000000000000000000000000000000000_0000000_1_0000_000
00000000000000000000000000000000000000000000000000_0000000_1_0000_000
00000000000000000000000000000000000000000000000000_0000000_1_0000_000
00000000000000000000000000000000000000000000000000_0000000_1_0000_000
00000000000000000000000000000000000000000000000000_0000000_1_0000_000
00000000000000000000000000000000000000000000000000_0000000_1_0000_000
00000000000000000000000000000000000000000000000000_0000000_1_0000_000
00000000000000000000000000000000000000000000000000_0000000_1_0000_000
00101100000000000000000000000000000000000000000000_0000110_1_1000_010
01011100001100000000000000000000000000000000000000_0001100_1_0000_010
01100100011000000000000000000000000000000000000000_0010000_1_1110_011
01001100110001110000000000000000000000000000000000_0010000_1_0000_000
10000000000000000000000000000000000000000000000000_0000001_1_0000_000
10000000000000000000000000000000000000000000000000_0000001_1_0000_000
00111000000000000000000000000000000000000000000000_0000111_1_1000_011
01000000010000000000000000000000000000000000000000_0001100_1_0000_000
10000000000000000000000000000000000000000000000000_0000001_1_0000_000
10000000000000000000000000000000000000000000000000_0000001_1_0000_000
00001000000000000000000000000000000000000000000000_0000101_1_0000_001
10000000000000000000000000000000000000000000000000_0000010_1_0000_000
00011000000000000000000000000000000000000000000000_0000101_1_0000_001
10000000000000000000000000000000000000000000000000_0000001_1_0000_000
00110110000000000000000000000000000000000000000000_0000111_1_0010_011
01011100110000010000000000000000000000000000000000_0010000_1_0000_000
00000000000000000000000000000000000000000000000000_0000000_1_0000_000
00000000000000000000000000000000000000000000000000_0000000_1_0000_000
00000000000000000000000000000000000000000000000000_0000000_1_0000_000
00000000000000000000000000000000000000000000000000_0000000_1_0000_000
10000000000000000000000000000000000000000000000000_0000001_1_0000_000
00001000000000000000000000000000000000000000000000_0000101_1_1000_001
10000000000000000000000000000000000000000000000000_0000001_1_0000_000
11000000000000000000000000000000000000000000000000_0000010_1_0000_000
00011000000000000000000000000000000000000000000000_0000101_1_1000_001
00011000000000000000000000000000000000000000000000_0000101_1_1000_001
10000000000000000000000000000000000000000000000000_0000001_1_0000_000
00011100000000000000000000000000000000000000000000_0000110_1_0000_000
00000000000000000000000000000000000000000000000000_0000000_1_0000_000
00000000000000000000000000000000000000000000000000_0000000_1_0000_000
00000000000000000000000000000000000000000000000000_0000000_1_0000_000
00000000000000000000000000000000000000000000000000_0000000_1_0000_000
10000000000000000000000000000000000000000000000000_0000001_1_0000_000
10000000000000000000000000000000000000000000000000_0000001_1_0000_000
10000000000000000000000000000000000000000000000000_0000001_1_0000_000
01000000000000000000000000000000000000000000000000_0001001_1_0000_000
01011000010000000000000000000000000000000000000000_0001011_1_1000_011
00000000000000000000000000000000000000000000000000_0000101_1_1000_001
10000000000000000000000000000000000000000000000000_0000001_1_0000_000
01000011010010000000000000000000000000000000000000_0001101_1_0000_000
10000000000000000000000000000000000000000000000000_0000001_1_0000_000
00001000000000000000000000000000000000000000000000_0000101_1_1000_001
10000000000000000000000000000000000000000000000000_0000001_1_0000_000
11000000000000000000000000000000000000000000000000_0000010_1_0000_000
00000000000000000000000000000000000000000000000000_0000101_1_0000_001
10000000000000000000000000000000000000000000000000_0000001_1_0000_000
00101000000000000000000000000000000000000000000000_0000110_1_0000_010
10000000000000000000000000000000000000000000000000_0000100_1_0000_000
00001000000000000000000000000000000000000000000000_0000101_1_0000_001
00110100000000000000000000000000000000000000000000_0000111_1_0010_011
00000000000000000000000000000000000000000000000000_0000101_1_0000_001
01110000101011111000000010000000000000000000000000_0011010_1_0000_000
00000000000000000000000000000000000000000000000000_0000000_1_0000_000
00000000000000000000000000000000000000000000000000_0000000_1_0000_000
00000000000000000000000000000000000000000000000000_0000000_1_0000_000
00000000000000000000000000000000000000000000000000_0000000_1_0000_000
10000000000000000000000000000000000000000000000000_0000001_1_0000_000
00001000000000000000000000000000000000000000000000_0000101_1_1000_001
10000000000000000000000000000000000000000000000000_0000001_1_0000_000
11000000000000000000000000000000000000000000000000_0000010_1_0000_000
00011000000000000000000000000000000000000000000000_0000101_1_1000_001
00010000000000000000000000000000000000000000000000_0000101_1_0000_001
00010000000000000000000000000000000000000000000000_0000101_1_0000_001
01010011001000000000000000000000000000000000000000_0001101_1_0000_000
00000000000000000000000000000000000000000000000000_0000000_1_0000_000
00000000000000000000000000000000000000000000000000_0000000_1_0000_000
00000000000000000000000000000000000000000000000000_0000000_1_0000_000
00000000000000000000000000000000000000000000000000_0000000_1_0000_000
00001000000000000000000000000000000000000000000000_0000101_1_1000_001
10000000000000000000000000000000000000000000000000_0000001_1_0000_000
10000000000000000000000000000000000000000000000000_0000001_1_0000_000
11000000000000000000000000000000000000000000000000_0000010_1_0000_000
00110110000000000000000000000000000000000000000000_0000111_1_0110_011
01000001100000000000000000000000000000000000000000_0001001_1_0000_001
00011000000000000000000000000000000000000000000000_0000101_1_1000_001
01001011101101000000000000000000000000000000000000_0001110_1_0000_000
00000000000000000000000000000000000000000000000000_0000000_1_0000_000
00000000000000000000000000000000000000000000000000_0000000_1_0000_000
00000000000000000000000000000000000000000000000000_0000000_1_0000_000
00000000000000000000000000000000000000000000000000_0000000_1_0000_000
00000000000000000000000000000000000000000000000000_0000000_1_0000_000
00000000000000000000000000000000000000000000000000_0000000_1_0000_000
00000000000000000000000000000000000000000000000000_0000000_1_0000_000
00000000000000000000000000000000000000000000000000_0000000_1_0000_000
00100000000000000000000000000000000000000000000000_0000110_1_1100_010
10000000000000000000000000000000000000000000000000_0000001_1_0000_000
00111000000000000000000000000000000000000000000000_0000111_1_1110_011
11111100000000000000000000000000000000000000000000_0000110_1_0000_000
00000000000000000000000000000000000000000000000000_0000000_1_0000_000
00000000000000000000000000000000000000000000000000_0000000_1_0000_000
00000000000000000000000000000000000000000000000000_0000000_1_0000_000
00000000000000000000000000000000000000000000000000_0000000_1_0000_000
00000000000000000000000000000000000000000000000000_0000000_1_0000_000
00000000000000000000000000000000000000000000000000_0000000_1_0000_000
00000000000000000000000000000000000000000000000000_0000000_1_0000_000
00000000000000000000000000000000000000000000000000_0000000_1_0000_000
10000000000000000000000000000000000000000000000000_0000001_1_0000_000
00011000000000000000000000000000000000000000000000_0000101_1_1000_001
00010000000000000000000000000000000000000000000000_0000101_1_0000_001
01001001110000000000000000000000000000000000000000_0001011_1_0000_000
00000000000000000000000000000000000000000000000000_0000000_1_0000_000
00000000000000000000000000000000000000000000000000_0000000_1_0000_000
00000000000000000000000000000000000000000000000000_0000000_1_0000_000
00000000000000000000000000000000000000000000000000_0000000_1_0000_000
00000000000000000000000000000000000000000000000000_0000000_1_0000_000
00000000000000000000000000000000000000000000000000_0000000_1_0000_000
00000000000000000000000000000000000000000000000000_0000000_1_0000_000
00000000000000000000000000000000000000000000000000_0000000_1_0000_000
00000000000000000000000000000000000000000000000000_0000101_1_0000_001
00001000000000000000000000000000000000000000000000_0000101_1_0000_001
01101000100111000000000000000000000000000000000000_0010000_1_1100_100
01100010010010100011000000000000000000000000000000_0010110_1_0000_000
10000000000000000000000000000000000000000000000000_0000001_1_0000_000
10000000000000000000000000000000000000000000000000_0000001_1_0000_000
00111000000000000000000000000000000000000000000000_0000111_1_1100_011
00001100000000000000000000000000000000000000000000_0000111_1_0000_000
10000000000000000000000000000000000000000000000000_0000001_1_0000_000
10000000000000000000000000000000000000000000000000_0000001_1_0000_000
00011000000000000000000000000000000000000000000000_0000101_1_0000_001
01001110100000000000000000000000000000000000000000_0001010_1_0000_000
00101000000000000000000000000000000000000000000000_0000110_1_0100_010
00011000000000000000000000000000000000000000000000_0000101_1_1000_001
01000000000000000000000000000000000000000000000000_0001001_1_0000_001
01000001101100000000000000000000000000000000000000_0001101_1_0000_000
00000000000000000000000000000000000000000000000000_0000000_1_0000_000
00000000000000000000000000000000000000000000000000_0000000_1_0000_000
00000000000000000000000000000000000000000000000000_0000000_1_0000_000
00000000000000000000000000000000000000000000000000_0000000_1_0000_000
00000000000000000000000000000000000000000000000000_0000000_1_0000_000
00000000000000000000000000000000000000000000000000_0000000_1_0000_000
00000000000000000000000000000000000000000000000000_0000000_1_0000_000
00000000000000000000000000000000000000000000000000_0000000_1_0000_000
01010010000000000000000000000000000000000000000000_0001010_1_0000_010
01011001100000000000000000000000000000000000000000_0001011_1_1000_011
00111000000000000000000000000000000000000000000000_0000111_1_0100_011
01001000100100010000000000000000000000000000000000_0010001_1_0000_000
00000000000000000000000000000000000000000000000000_0000000_1_0000_000
00000000000000000000000000000000000000000000000000_0000000_1_0000_000
00000000000000000000000000000000000000000000000000_0000000_1_0000_000
00000000000000000000000000000000000000000000000000_0000000_1_0000_000
00000000000000000000000000000000000000000000000000_0000000_1_0000_000
00000000000000000000000000000000000000000000000000_0000000_1_0000_000
00000000000000000000000000000000000000000000000000_0000000_1_0000_000
00000000000000000000000000000000000000000000000000_0000000_1_0000_000
00001000000000000000000000000000000000000000000000_0000101_1_1000_001
10000000000000000000000000000000000000000000000000_0000001_1_0000_000
10000000000000000000000000000000000000000000000000_0000001_1_0000_000
11000000000000000000000000000000000000000000000000_0000010_1_0000_000
00000000000000000000000000000000000000000000000000_0000000_1_0000_000
00000000000000000000000000000000000000000000000000_0000000_1_0000_000
00000000000000000000000000000000000000000000000000_0000000_1_0000_000
00000000000000000000000000000000000000000000000000_0000000_1_0000_000
00000000000000000000000000000000000000000000000000_0000000_1_0000_000
00000000000000000000000000000000000000000000000000_0000000_1_0000_000
00000000000000000000000000000000000000000000000000_0000000_1_0000_000
00000000000000000000000000000000000000000000000000_0000000_1_0000_000
00001000000000000000000000000000000000000000000000_0000101_1_0000_001
10000000000000000000000000000000000000000000000000_0000001_1_0000_000
00011000000000000000000000000000000000000000000000_0000101_1_0000_001
01100010010000100000000000000000000000000000000000_0010010_1_0000_000
00000000000000000000000000000000000000000000000000_0000000_1_0000_000
00000000000000000000000000000000000000000000000000_0000000_1_0000_000
00000000000000000000000000000000000000000000000000_0000000_1_0000_000
00000000000000000000000000000000000000000000000000_0000000_1_0000_000
00000000000000000000000000000000000000000000000000_0000000_1_0000_000
00000000000000000000000000000000000000000000000000_0000000_1_0000_000
00000000000000000000000000000000000000000000000000_0000000_1_0000_000
00000000000000000000000000000000000000000000000000_0000000_1_0000_000
10000000000000000000000000000000000000000000000000_0000001_1_0000_000
10000000000000000000000000000000000000000000000000_0000001_1_0000_000
01000110000000000000000000000000000000000000000000_0001001_1_1000_010
01010101111000000000000000000000000000000000000000_0001100_1_0000_000
00000000000000000000000000000000000000000000000000_0000000_1_0000_000
00000000000000000000000000000000000000000000000000_0000000_1_0000_000
00000000000000000000000000000000000000000000000000_0000000_1_0000_000
00000000000000000000000000000000000000000000000000_0000000_1_0000_000
00100000000000000000000000000000000000000000000000_0000110_1_0000_010
10000000000000000000000000000000000000000000000000_0000001_1_0000_000
10000000000000000000000000000000000000000000000000_0000001_1_0000_000
01000000000000000000000000000000000000000000000000_0001011_1_0000_000
00010000000000000000000000000000000000000000000000_0000101_1_0000_001
00010000000000000000000000000000000000000000000000_0000101_1_0000_001
00001000000000000000000000000000000000000000000000_0000101_1_1000_001
10010000000000000000000000000000000000000000000000_0000100_1_0000_000
00000000000000000000000000000000000000000000000000_0000000_1_0000_000
00000000000000000000000000000000000000000000000000_0000000_1_0000_000
00000000000000000000000000000000000000000000000000_0000000_1_0000_000
00000000000000000000000000000000000000000000000000_0000000_1_0000_000
00011000000000000000000000000000000000000000000000_0000101_1_0000_001
10000000000000000000000000000000000000000000000000_0000001_1_0000_000
10000000000000000000000000000000000000000000000000_0000001_1_0000_000
10000000000000000000000000000000000000000000000000_0000010_1_0000_000
00011000000000000000000000000000000000000000000000_0000101_1_1000_001
00101100000000000000000000000000000000000000000000_0000110_1_0100_010
01100111010010100000000000000000000000000000000000_0010000_1_0011_100
00011010011000000000000000000000000000000000000000_0001011_1_0000_000
10000000000000000000000000000000000000000000000000_0000001_1_0000_000
00010000000000000000000000000000000000000000000000_0000101_1_0000_001
00100000000000000000000000000000000000000000000000_0000110_1_1100_010
00111100011000000000000000000000000000000000000000_0001011_1_0000_000
01001000000000000000000000000000000000000000000000_0001001_1_0000_011
10000000000000000000000000000000000000000000000000_0000001_1_0000_000
10000000000000000000000000000000000000000000000000_0000001_1_0000_000
01001000000000000000000000000000000000000000000000_0001100_1_0000_000
01010010110000000000000000000000000000000000000000_0001010_1_0100_010
01000011100000000000000000000000000000000000000000_0001001_1_0000_010
00000000000000000000000000000000000000000000000000_0000101_1_0000_001
01000000101000000000000000000000000000000000000000_0001110_1_0000_000
01001000000000000000000000000000000000000000000000_0001001_1_0100_011
10000000000000000000000000000000000000000000000000_0000001_1_0000_000
10000000000000000000000000000000000000000000000000_0000001_1_0000_000
10100000000000000000000000000000000000000000000000_0000100_1_0000_000
00001000000000000000000000000000000000000000000000_0000101_1_0000_001
00100100000000000000000000000000000000000000000000_0000110_1_1100_010
10000000000000000000000000000000000000000000000000_0000001_1_0000_000
10110000000000000000000000000000000000000000000000_0000100_1_0000_000
01000000100000000000000000000000000000000000000000_0001001_1_0000_001
00011000000000000000000000000000000000000000000000_0000101_1_1000_001
01010001010000000000000000000000000000000000000000_0001010_1_0010_100
01000100001001000000000000000000000000000000000000_0001111_1_0000_000
10000000000000000000000000000000000000000000000000_0000001_1_0000_000
10000000000000000000000000000000000000000000000000_0000001_1_0000_000
00001000000000000000000000000000000000000000000000_0000101_1_0000_001
01000000100000000000000000000000000000000000000000_0001010_1_0000_000
10000000000000000000000000000000000000000000000000_0000001_1_0000_000
00111010000000000000000000000000000000000000000000_0000111_1_0100_011
00010000000000000000000000000000000000000000000000_0000101_1_0000_001
10100000000000000000000000000000000000000000000000_0000101_1_0000_000
00110010000000000000000000000000000000000000000000_0000111_1_1100_010
00110010000000000000000000000000000000000000000000_0000111_1_1100_010
01010010010000000000000000000000000000000000000000_0001010_1_1100_010
01001110011111100000000000000000000000000000000000_0001111_1_0000_000
00000000000000000000000000000000000000000000000000_0000101_1_0000_001
10000000000000000000000000000000000000000000000000_0000001_1_0000_000
10000000000000000000000000000000000000000000000000_0000001_1_0000_000
10000000000000000000000000000000000000000000000000_0000010_1_0000_000
00000000000000000000000000000000000000000000000000_0000000_1_0000_000
00000000000000000000000000000000000000000000000000_0000000_1_0000_000
00000000000000000000000000000000000000000000000000_0000000_1_0000_000
00000000000000000000000000000000000000000000000000_0000000_1_0000_000
01000000000000000000000000000000000000000000000000_0001001_1_0000_001
10000000000000000000000000000000000000000000000000_0000001_1_0000_000
00101100000000000000000000000000000000000000000000_0000110_1_1000_010
01001001001000000000000000000000000000000000000000_0001100_1_0000_000
10000000000000000000000000000000000000000000000000_0000001_1_0000_000
10000000000000000000000000000000000000000000000000_0000001_1_0000_000
00100100000000000000000000000000000000000000000000_0000110_1_1100_010
11100000000000000000000000000000000000000000000000_0000011_1_0000_000
10000000000000000000000000000000000000000000000000_0000001_1_0000_000
10000000000000000000000000000000000000000000000000_0000001_1_0000_000
00100000000000000000000000000000000000000000000000_0000110_1_0000_010
01000001000000000000000000000000000000000000000000_0001011_1_0000_000
10000000000000000000000000000000000000000000000000_0000001_1_0000_000
00110000000000000000000000000000000000000000000000_0000111_1_0000_010
00100100000000000000000000000000000000000000000000_0000110_1_0000_010
01000000100000000000000000000000000000000000000000_0001101_1_0000_000
10000000000000000000000000000000000000000000000000_0000001_1_0000_000
00011000000000000000000000000000000000000000000000_0000101_1_0000_001
10000000000000000000000000000000000000000000000000_0000001_1_0000_000
10000000000000000000000000000000000000000000000000_0000010_1_0000_000
00000000000000000000000000000000000000000000000000_0000000_1_0000_000
00000000000000000000000000000000000000000000000000_0000000_1_0000_000
00000000000000000000000000000000000000000000000000_0000000_1_0000_000
00000000000000000000000000000000000000000000000000_0000000_1_0000_000
10000000000000000000000000000000000000000000000000_0000001_1_0000_000
10000000000000000000000000000000000000000000000000_0000001_1_0000_000
00000000000000000000000000000000000000000000000000_0000101_1_0000_001
10000000000000000000000000000000000000000000000000_0000010_1_0000_000
10000000000000000000000000000000000000000000000000_0000001_1_0000_000
00001000000000000000000000000000000000000000000000_0000101_1_0000_001
10000000000000000000000000000000000000000000000000_0000001_1_0000_000
10000000000000000000000000000000000000000000000000_0000010_1_0000_000
00000000000000000000000000000000000000000000000000_0000000_1_0000_000
00000000000000000000000000000000000000000000000000_0000000_1_0000_000
00000000000000000000000000000000000000000000000000_0000000_1_0000_000
00000000000000000000000000000000000000000000000000_0000000_1_0000_000
00111010000000000000000000000000000000000000000000_0000111_1_1000_011
10000000000000000000000000000000000000000000000000_0000001_1_0000_000
10000000000000000000000000000000000000000000000000_0000001_1_0000_000
01000000110000000000000000000000000000000000000000_0001100_1_0000_000
10000000000000000000000000000000000000000000000000_0000001_1_0000_000
00000000000000000000000000000000000000000000000000_0000101_1_0000_001
10000000000000000000000000000000000000000000000000_0000001_1_0000_000
10000000000000000000000000000000000000000000000000_0000010_1_0000_000
00010000000000000000000000000000000000000000000000_0000101_1_0000_001
00100000000000000000000000000000000000000000000000_0000110_1_0000_010
10000000000000000000000000000000000000000000000000_0000001_1_0000_000
10000000000000000000000000000000000000000000000000_0000100_1_0000_000
00111000000000000000000000000000000000000000000000_0000111_1_0110_011
01000000000000000000000000000000000000000000000000_0001001_1_0000_001
00100100000000000000000000000000000000000000000000_0000110_1_0100_010
01010111000110010000000000000000000000000000000000_0010000_1_0000_000
00000000000000000000000000000000000000000000000000_0000000_1_0000_000
00000000000000000000000000000000000000000000000000_0000000_1_0000_000
00000000000000000000000000000000000000000000000000_0000000_1_0000_000
00000000000000000000000000000000000000000000000000_0000000_1_0000_000
10000000000000000000000000000000000000000000000000_0000001_1_0000_000
00011000000000000000000000000000000000000000000000_0000101_1_1000_001
10000000000000000000000000000000000000000000000000_0000001_1_0000_000
11000000000000000000000000000000000000000000000000_0000010_1_0000_000
00001000000000000000000000000000000000000000000000_0000101_1_0000_001
00011000000000000000000000000000000000000000000000_0000101_1_0000_001
01010000010000000000000000000000000000000000000000_0001010_1_0111_100
00111000001110000000000000000000000000000000000000_0001101_1_0000_000
00000000000000000000000000000000000000000000000000_0000000_1_0000_000
00000000000000000000000000000000000000000000000000_0000000_1_0000_000
00000000000000000000000000000000000000000000000000_0000000_1_0000_000
00000000000000000000000000000000000000000000000000_0000000_1_0000_000
10000000000000000000000000000000000000000000000000_0000001_1_0000_000
10000000000000000000000000000000000000000000000000_0000001_1_0000_000
00010000000000000000000000000000000000000000000000_0000101_1_1000_001
11000000000000000000000000000000000000000000000000_0000010_1_0000_000
00010000000000000000000000000000000000000000000000_0000101_1_0000_001
01100010010101010000000000000000000000000000000000_0010000_1_1001_100
00111000000000000000000000000000000000000000000000_0000111_1_1010_011
01100111110101100100110100000000000000000000000000_0011000_1_0000_000
01000001000000000000000000000000000000000000000000_0001001_1_0000_001
00001000000000000000000000000000000000000000000000_0000101_1_1000_001
10000000000000000000000000000000000000000000000000_0000001_1_0000_000
01000011101000000000000000000000000000000000000000_0001011_1_0000_000
00011000000000000000000000000000000000000000000000_0000101_1_1000_001
00001000000000000000000000000000000000000000000000_0000101_1_1000_001
10000000000000000000000000000000000000000000000000_0000001_1_0000_000
11100000000000000000000000000000000000000000000000_0000011_1_0000_000
00000000000000000000000000000000000000000000000000_0000101_1_1000_001
10000000000000000000000000000000000000000000000000_0000001_1_0000_000
00110100000000000000000000000000000000000000000000_0000111_1_1110_011
00101111100000000000000000000000000000000000000000_0001001_1_0000_000
10000000000000000000000000000000000000000000000000_0000001_1_0000_000
10000000000000000000000000000000000000000000000000_0000001_1_0000_000
00100100000000000000000000000000000000000000000000_0000110_1_1100_010
11100000000000000000000000000000000000000000000000_0000011_1_0000_000
00000000000000000000000000000000000000000000000000_0000000_1_0000_000
00000000000000000000000000000000000000000000000000_0000000_1_0000_000
00000000000000000000000000000000000000000000000000_0000000_1_0000_000
00000000000000000000000000000000000000000000000000_0000000_1_0000_000
10000000000000000000000000000000000000000000000000_0000001_1_0000_000
01011000111000000000000000000000000000000000000000_0001011_1_1110_011
00111100000000000000000000000000000000000000000000_0000111_1_1001_100
01011000001111100100000000000000000000000000000000_0010010_1_0000_000
00000000000000000000000000000000000000000000000000_0000000_1_0000_000
00000000000000000000000000000000000000000000000000_0000000_1_0000_000
00000000000000000000000000000000000000000000000000_0000000_1_0000_000
00000000000000000000000000000000000000000000000000_0000000_1_0000_000
10000000000000000000000000000000000000000000000000_0000001_1_0000_000
00001000000000000000000000000000000000000000000000_0000101_1_0000_001
00110000000000000000000000000000000000000000000000_0000111_1_0000_010
01000001000000000000000000000000000000000000000000_0001100_1_0000_000
10000000000000000000000000000000000000000000000000_0000001_1_0000_000
01000100100000000000000000000000000000000000000000_0001001_1_0000_010
00000000000000000000000000000000000000000000000000_0000101_1_1000_001
00100001000000000000000000000000000000000000000000_0001000_1_0000_000
00000000000000000000000000000000000000000000000000_0000000_1_0000_000
00000000000000000000000000000000000000000000000000_0000000_1_0000_000
00000000000000000000000000000000000000000000000000_0000000_1_0000_000
00000000000000000000000000000000000000000000000000_0000000_1_0000_000
00010000000000000000000000000000000000000000000000_0000101_1_0000_001
10000000000000000000000000000000000000000000000000_0000001_1_0000_000
00000000000000000000000000000000000000000000000000_0000101_1_0000_001
10000000000000000000000000000000000000000000000000_0000011_1_0000_000
01010101110000000000000000000000000000000000000000_0001010_1_1000_011
00111010000000000000000000000000000000000000000000_0000111_1_1010_011
00010000000000000000000000000000000000000000000000_0000101_1_0000_001
11001010000000000000000000000000000000000000000000_0001000_1_0000_000
00000000000000000000000000000000000000000000000000_0000000_1_0000_000
00000000000000000000000000000000000000000000000000_0000000_1_0000_000
00000000000000000000000000000000000000000000000000_0000000_1_0000_000
00000000000000000000000000000000000000000000000000_0000000_1_0000_000
10000000000000000000000000000000000000000000000000_0000001_1_0000_000
10000000000000000000000000000000000000000000000000_0000001_1_0000_000
00000000000000000000000000000000000000000000000000_0000101_1_0000_001
10000000000000000000000000000000000000000000000000_0000010_1_0000_000
10000000000000000000000000000000000000000000000000_0000001_1_0000_000
00100100000000000000000000000000000000000000000000_0000110_1_0000_010
01000000100000000000000000000000000000000000000000_0001001_1_0000_001
01000010100000000000000000000000000000000000000000_0001100_1_0000_000
00000000000000000000000000000000000000000000000000_0000000_1_0000_000
00000000000000000000000000000000000000000000000000_0000000_1_0000_000
00000000000000000000000000000000000000000000000000_0000000_1_0000_000
00000000000000000000000000000000000000000000000000_0000000_1_0000_000
10000000000000000000000000000000000000000000000000_0000001_1_0000_000
10000000000000000000000000000000000000000000000000_0000001_1_0000_000
00001000000000000000000000000000000000000000000000_0000101_1_0000_001
10000000000000000000000000000000000000000000000000_0000010_1_0000_000
00001000000000000000000000000000000000000000000000_0000101_1_0000_001
01000100000000000000000000000000000000000000000000_0001001_1_0000_010
01001010100000000000000000000000000000000000000000_0001001_1_1010_011
10001010000000000000000000000000000000000000000000_0000111_1_0000_000
00000000000000000000000000000000000000000000000000_0000000_1_0000_000
00000000000000000000000000000000000000000000000000_0000000_1_0000_000
00000000000000000000000000000000000000000000000000_0000000_1_0000_000
00000000000000000000000000000000000000000000000000_0000000_1_0000_000
00000000000000000000000000000000000000000000000000_0000000_1_0000_000
00000000000000000000000000000000000000000000000000_0000000_1_0000_000
00000000000000000000000000000000000000000000000000_0000000_1_0000_000
00000000000000000000000000000000000000000000000000_0000000_1_0000_000
01000100000000000000000000000000000000000000000000_0001001_1_0000_010
01011001000000000000000000000000000000000000000000_0001011_1_1100_011
10000000000000000000000000000000000000000000000000_0000001_1_0000_000
01101110111111110011000000000000000000000000000000_0010101_1_0000_000
10000000000000000000000000000000000000000000000000_0000001_1_0000_000
00011000000000000000000000000000000000000000000000_0000101_1_0000_001
10000000000000000000000000000000000000000000000000_0000001_1_0000_000
01000011000000000000000000000000000000000000000000_0001010_1_0000_000
00100000000000000000000000000000000000000000000000_0000110_1_1100_010
10000000000000000000000000000000000000000000000000_0000001_1_0000_000
10000000000000000000000000000000000000000000000000_0000001_1_0000_000
11100000000000000000000000000000000000000000000000_0000011_1_0000_000
00100000000000000000000000000000000000000000000000_0000110_1_1000_010
01000010000000000000000000000000000000000000000000_0001001_1_0000_010
01010110110000000000000000000000000000000000000000_0001010_1_0100_011
11000010000000000000000000000000000000000000000000_0001000_1_0000_000
10000000000000000000000000000000000000000000000000_0000001_1_0000_000
00010000000000000000000000000000000000000000000000_0000101_1_1000_001
10000000000000000000000000000000000000000000000000_0000001_1_0000_000
11000000000000000000000000000000000000000000000000_0000010_1_0000_000
10000000000000000000000000000000000000000000000000_0000001_1_0000_000
10000000000000000000000000000000000000000000000000_0000001_1_0000_000
00001000000000000000000000000000000000000000000000_0000101_1_1000_001
11000000000000000000000000000000000000000000000000_0000010_1_0000_000
10000000000000000000000000000000000000000000000000_0000001_1_0000_000
01011011101000000000000000000000000000000000000000_0001011_1_0001_100
10000000000000000000000000000000000000000000000000_0000001_1_0000_000
10001000000000000000000000000000000000000000000000_0000101_1_0000_000
00000000000000000000000000000000000000000000000000_0000000_1_0000_000
00000000000000000000000000000000000000000000000000_0000000_1_0000_000
00000000000000000000000000000000000000000000000000_0000000_1_0000_000
00000000000000000000000000000000000000000000000000_0000000_1_0000_000
00000000000000000000000000000000000000000000000000_0000000_1_0000_000
00000000000000000000000000000000000000000000000000_0000000_1_0000_000
00000000000000000000000000000000000000000000000000_0000000_1_0000_000
00000000000000000000000000000000000000000000000000_0000000_1_0000_000
10000000000000000000000000000000000000000000000000_0000001_1_0000_000
00010000000000000000000000000000000000000000000000_0000101_1_0000_001
00100000000000000000000000000000000000000000000000_0000110_1_1100_010
10110000000000000000000000000000000000000000000000_0000100_1_0000_000
00000000000000000000000000000000000000000000000000_0000000_1_0000_000
00000000000000000000000000000000000000000000000000_0000000_1_0000_000
00000000000000000000000000000000000000000000000000_0000000_1_0000_000
00000000000000000000000000000000000000000000000000_0000000_1_0000_000
00000000000000000000000000000000000000000000000000_0000000_1_0000_000
00000000000000000000000000000000000000000000000000_0000000_1_0000_000
00000000000000000000000000000000000000000000000000_0000000_1_0000_000
00000000000000000000000000000000000000000000000000_0000000_1_0000_000
00110100000000000000000000000000000000000000000000_0000111_1_0000_011
01011111000011000000000000000000000000000000000000_0001110_1_0010_011
00110010000000000000000000000000000000000000000000_0000111_1_1100_010
10000011100000000000000000000000000000000000000000_0001001_1_0000_000
00000000000000000000000000000000000000000000000000_0000000_1_0000_000
00000000000000000000000000000000000000000000000000_0000000_1_0000_000
00000000000000000000000000000000000000000000000000_0000000_1_0000_000
00000000000000000000000000000000000000000000000000_0000000_1_0000_000
00000000000000000000000000000000000000000000000000_0000000_1_0000_000
00000000000000000000000000000000000000000000000000_0000000_1_0000_000
00000000000000000000000000000000000000000000000000_0000000_1_0000_000
00000000000000000000000000000000000000000000000000_0000000_1_0000_000
01010010010000000000000000000000000000000000000000_0001010_1_1000_010
00100100000000000000000000000000000000000000000000_0000110_1_0100_010
00010000000000000000000000000000000000000000000000_0000101_1_1000_001
11001100000000000000000000000000000000000000000000_0000110_1_0000_000
00101000000000000000000000000000000000000000000000_0000110_1_0000_010
00100100000000000000000000000000000000000000000000_0000110_1_0000_010
00111010000000000000000000000000000000000000000000_0000111_1_1100_011
01000001000001100000000000000000000000000000000000_0010000_1_0000_000
00000000000000000000000000000000000000000000000000_0000000_1_0000_000
00000000000000000000000000000000000000000000000000_0000000_1_0000_000
00000000000000000000000000000000000000000000000000_0000000_1_0000_000
00000000000000000000000000000000000000000000000000_0000000_1_0000_000
10000000000000000000000000000000000000000000000000_0000001_1_0000_000
00011000000000000000000000000000000000000000000000_0000101_1_1000_001
00111010000000000000000000000000000000000000000000_0000111_1_1010_011
01011000100110100000000000000000000000000000000000_0001111_1_0000_000
10000000000000000000000000000000000000000000000000_0000001_1_0000_000
10000000000000000000000000000000000000000000000000_0000001_1_0000_000
00010000000000000000000000000000000000000000000000_0000101_1_0000_001
01000001100000000000000000000000000000000000000000_0001010_1_0000_000
00000000000000000000000000000000000000000000000000_0000000_1_0000_000
00000000000000000000000000000000000000000000000000_0000000_1_0000_000
00000000000000000000000000000000000000000000000000_0000000_1_0000_000
00000000000000000000000000000000000000000000000000_0000000_1_0000_000
01011010100000000000000000000000000000000000000000_0001011_1_0000_010
00111100000000000000000000000000000000000000000000_0000111_1_0001_100
01010001010000000000000000000000000000000000000000_0001010_1_1010_100
01100110100001100000011010000000000000000000000000_0011010_1_0000_000
00110000000000000000000000000000000000000000000000_0000111_1_1000_010
00101000000000000000000000000000000000000000000000_0000110_1_1100_010
10000000000000000000000000000000000000000000000000_0000001_1_0000_000
01010101111011000000000000000000000000000000000000_0001110_1_0000_000
00010000000000000000000000000000000000000000000000_0000101_1_0000_001
10000000000000000000000000000000000000000000000000_0000001_1_0000_000
00001000000000000000000000000000000000000000000000_0000101_1_0000_001
00100000000000000000000000000000000000000000000000_0000111_1_0000_000
10000000000000000000000000000000000000000000000000_0000001_1_0000_000
00111100000000000000000000000000000000000000000000_0000111_1_1100_100
01010000000000000000000000000000000000000000000000_0001010_1_0011_100
01010111101100001100000000000000000000000000000000_0010010_1_0000_000
00000000000000000000000000000000000000000000000000_0000000_1_0000_000
00000000000000000000000000000000000000000000000000_0000000_1_0000_000
00000000000000000000000000000000000000000000000000_0000000_1_0000_000
00000000000000000000000000000000000000000000000000_0000000_1_0000_000
00000000000000000000000000000000000000000000000000_0000000_1_0000_000
00000000000000000000000000000000000000000000000000_0000000_1_0000_000
00000000000000000000000000000000000000000000000000_0000000_1_0000_000
00000000000000000000000000000000000000000000000000_0000000_1_0000_000
00010000000000000000000000000000000000000000000000_0000101_1_0000_001
00100100000000000000000000000000000000000000000000_0000110_1_0000_010
00000000000000000000000000000000000000000000000000_0000101_1_1000_001
01011011111000100000000000000000000000000000000000_0001111_1_0000_000
00100000000000000000000000000000000000000000000000_0000110_1_1100_010
00000000000000000000000000000000000000000000000000_0000101_1_1000_001
10000000000000000000000000000000000000000000000000_0000001_1_0000_000
11110000000000000000000000000000000000000000000000_0000100_1_0000_000
10000000000000000000000000000000000000000000000000_0000001_1_0000_000
10000000000000000000000000000000000000000000000000_0000001_1_0000_000
00110100000000000000000000000000000000000000000000_0000111_1_1110_011
00111110111100000000000000000000000000000000000000_0001100_1_0000_000
00110010000000000000000000000000000000000000000000_0000111_1_0000_010
01000000000000000000000000000000000000000000000000_0001001_1_0000_001
00100000000000000000000000000000000000000000000000_0000110_1_0000_010
01000001100000000000000000000000000000000000000000_0001110_1_0000_000
00000000000000000000000000000000000000000000000000_0000000_1_0000_000
00000000000000000000000000000000000000000000000000_0000000_1_0000_000
00000000000000000000000000000000000000000000000000_0000000_1_0000_000
00000000000000000000000000000000000000000000000000_0000000_1_0000_000
00000000000000000000000000000000000000000000000000_0000000_1_0000_000
00000000000000000000000000000000000000000000000000_0000000_1_0000_000
00000000000000000000000000000000000000000000000000_0000000_1_0000_000
00000000000000000000000000000000000000000000000000_0000000_1_0000_000
01000101100000000000000000000000000000000000000000_0001001_1_1000_010
00010000000000000000000000000000000000000000000000_0000101_1_0000_001
00100100000000000000000000000000000000000000000000_0000110_1_1100_010
01001011110011000000000000000000000000000000000000_0001110_1_0000_000
00000000000000000000000000000000000000000000000000_0000101_1_1000_001
00001000000000000000000000000000000000000000000000_0000101_1_0000_001
10000000000000000000000000000000000000000000000000_0000001_1_0000_000
11000000000000000000000000000000000000000000000000_0000011_1_0000_000
10000000000000000000000000000000000000000000000000_0000001_1_0000_000
00001000000000000000000000000000000000000000000000_0000101_1_0000_001
10000000000000000000000000000000000000000000000000_0000001_1_0000_000
10000000000000000000000000000000000000000000000000_0000010_1_0000_000
01010010010000000000000000000000000000000000000000_0001010_1_1000_010
00010000000000000000000000000000000000000000000000_0000101_1_1000_001
00110110000000000000000000000000000000000000000000_0000111_1_0110_011
11010110000000000000000000000000000000000000000000_0000111_1_0000_000
00000000000000000000000000000000000000000000000000_0000000_1_0000_000
00000000000000000000000000000000000000000000000000_0000000_1_0000_000
00000000000000000000000000000000000000000000000000_0000000_1_0000_000
00000000000000000000000000000000000000000000000000_0000000_1_0000_000
10000000000000000000000000000000000000000000000000_0000001_1_0000_000
00010000000000000000000000000000000000000000000000_0000101_1_0000_001
10000000000000000000000000000000000000000000000000_0000001_1_0000_000
00100000000000000000000000000000000000000000000000_0000110_1_0000_000
00111010000000000000000000000000000000000000000000_0000111_1_0100_011
01001011100000000000000000000000000000000000000000_0001001_1_1100_011
01011101101100000000000000000000000000000000000000_0001100_1_0111_100
01101011111111010101100111000000000000000000000000_0011010_1_0000_000
10000000000000000000000000000000000000000000000000_0000001_1_0000_000
00011000000000000000000000000000000000000000000000_0000101_1_1000_001
00010000000000000000000000000000000000000000000000_0000101_1_0000_001
01001111010000000000000000000000000000000000000000_0001011_1_0000_000
00000000000000000000000000000000000000000000000000_0000101_1_1000_001
10000000000000000000000000000000000000000000000000_0000001_1_0000_000
10000000000000000000000000000000000000000000000000_0000001_1_0000_000
01010011001000000000000000000000000000000000000000_0001011_1_0000_000
00101000000000000000000000000000000000000000000000_0000110_1_1100_010
00001000000000000000000000000000000000000000000000_0000101_1_0000_001
00001000000000000000000000000000000000000000000000_0000101_1_0000_001
01100101110001111100000000000000000000000000000000_0010100_1_0000_000
10000000000000000000000000000000000000000000000000_0000001_1_0000_000
10000000000000000000000000000000000000000000000000_0000001_1_0000_000
10000000000000000000000000000000000000000000000000_0000001_1_0000_000
01000001000000000000000000000000000000000000000000_0001001_1_0000_000
00000000000000000000000000000000000000000000000000_0000000_1_0000_000
00000000000000000000000000000000000000000000000000_0000000_1_0000_000
00000000000000000000000000000000000000000000000000_0000000_1_0000_000
00000000000000000000000000000000000000000000000000_0000000_1_0000_000
01000111000000000000000000000000000000000000000000_0001001_1_1100_010
01011000011000000000000000000000000000000000000000_0001011_1_0111_100
00000000000000000000000000000000000000000000000000_0000101_1_0000_001
01011111000100110111000000000000000000000000000000_0010101_1_0000_000
00000000000000000000000000000000000000000000000000_0000000_1_0000_000
00000000000000000000000000000000000000000000000000_0000000_1_0000_000
00000000000000000000000000000000000000000000000000_0000000_1_0000_000
00000000000000000000000000000000000000000000000000_0000000_1_0000_000
00010000000000000000000000000000000000000000000000_0000101_1_0000_001
10000000000000000000000000000000000000000000000000_0000001_1_0000_000
10000000000000000000000000000000000000000000000000_0000001_1_0000_000
10000000000000000000000000000000000000000000000000_0000010_1_0000_000
00101000000000000000000000000000000000000000000000_0000110_1_1100_010
00011000000000000000000000000000000000000000000000_0000101_1_0000_001
00110000000000000000000000000000000000000000000000_0000111_1_1000_010
01011100110111010000000000000000000000000000000000_0010001_1_0000_000
00000000000000000000000000000000000000000000000000_0000000_1_0000_000
00000000000000000000000000000000000000000000000000_0000000_1_0000_000
00000000000000000000000000000000000000000000000000_0000000_1_0000_000
00000000000000000000000000000000000000000000000000_0000000_1_0000_000
00000000000000000000000000000000000000000000000000_0000000_1_0000_000
00000000000000000000000000000000000000000000000000_0000000_1_0000_000
00000000000000000000000000000000000000000000000000_0000000_1_0000_000
00000000000000000000000000000000000000000000000000_0000000_1_0000_000
10000000000000000000000000000000000000000000000000_0000001_1_0000_000
10000000000000000000000000000000000000000000000000_0000001_1_0000_000
10000000000000000000000000000000000000000000000000_0000001_1_0000_000
01000101000000000000000000000000000000000000000000_0001001_1_0000_000
00000000000000000000000000000000000000000000000000_0000000_1_0000_000
00000000000000000000000000000000000000000000000000_0000000_1_0000_000
00000000000000000000000000000000000000000000000000_0000000_1_0000_000
00000000000000000000000000000000000000000000000000_0000000_1_0000_000
00011000000000000000000000000000000000000000000000_0000101_1_1000_001
10000000000000000000000000000000000000000000000000_0000001_1_0000_000
10000000000000000000000000000000000000000000000000_0000001_1_0000_000
11000000000000000000000000000000000000000000000000_0000010_1_0000_000
01000001000000000000000000000000000000000000000000_0001001_1_1000_001
00110000000000000000000000000000000000000000000000_0000111_1_0100_010
00100000000000000000000000000000000000000000000000_0000110_1_1100_010
01001101110111000000000000000000000000000000000000_0001110_1_0000_000
10000000000000000000000000000000000000000000000000_0000001_1_0000_000
10000000000000000000000000000000000000000000000000_0000001_1_0000_000
00010000000000000000000000000000000000000000000000_0000101_1_0000_001
01000011000000000000000000000000000000000000000000_0001010_1_0000_000
00000000000000000000000000000000000000000000000000_0000000_1_0000_000
00000000000000000000000000000000000000000000000000_0000000_1_0000_000
00000000000000000000000000000000000000000000000000_0000000_1_0000_000
00000000000000000000000000000000000000000000000000_0000000_1_0000_000
01011110011110000000000000000000000000000000000000_0001101_1_1000_100
00111010000000000000000000000000000000000000000000_0000111_1_1110_011
01000111000000000000000000000000000000000000000000_0001001_1_0000_010
01100000001110111000111000000000000000000000000000_0011001_1_0000_000
10000000000000000000000000000000000000000000000000_0000001_1_0000_000
00010000000000000000000000000000000000000000000000_0000101_1_1000_001
00001000000000000000000000000000000000000000000000_0000101_1_0000_001
11000000000000000000000000000000000000000000000000_0000011_1_0000_000
00010000000000000000000000000000000000000000000000_0000101_1_0000_001
00001000000000000000000000000000000000000000000000_0000101_1_1000_001
10000000000000000000000000000000000000000000000000_0000001_1_0000_000
10100000000000000000000000000000000000000000000000_0000011_1_0000_000
00001000000000000000000000000000000000000000000000_0000101_1_0000_001
00011000000000000000000000000000000000000000000000_0000101_1_0000_001
10000000000000000000000000000000000000000000000000_0000001_1_0000_000
10000000000000000000000000000000000000000000000000_0000011_1_0000_000
00000000000000000000000000000000000000000000000000_0000000_1_0000_000
00000000000000000000000000000000000000000000000000_0000000_1_0000_000
00000000000000000000000000000000000000000000000000_0000000_1_0000_000
00000000000000000000000000000000000000000000000000_0000000_1_0000_000
00000000000000000000000000000000000000000000000000_0000000_1_0000_000
00000000000000000000000000000000000000000000000000_0000000_1_0000_000
00000000000000000000000000000000000000000000000000_0000000_1_0000_000
00000000000000000000000000000000000000000000000000_0000000_1_0000_000
01000110100000000000000000000000000000000000000000_0001001_1_1000_010
01011100010000000000000000000000000000000000000000_0001100_1_0100_011
00100100000000000000000000000000000000000000000000_0000110_1_0100_010
01110010000011111000010010010000000000000000000000_0011100_1_0000_000
10000000000000000000000000000000000000000000000000_0000001_1_0000_000
10000000000000000000000000000000000000000000000000_0000001_1_0000_000
00001000000000000000000000000000000000000000000000_0000101_1_1000_001
01000011110000000000000000000000000000000000000000_0001010_1_0000_000
10000000000000000000000000000000000000000000000000_0000001_1_0000_000
00001000000000000000000000000000000000000000000000_0000101_1_0000_001
10000000000000000000000000000000000000000000000000_0000001_1_0000_000
01000001000000000000000000000000000000000000000000_0001010_1_0000_000
00000000000000000000000000000000000000000000000000_0000101_1_1000_001
00101100000000000000000000000000000000000000000000_0000110_1_0100_010
10000000000000000000000000000000000000000000000000_0000001_1_0000_000
00001010000000000000000000000000000000000000000000_0000111_1_0000_000
00000000000000000000000000000000000000000000000000_0000000_1_0000_000
00000000000000000000000000000000000000000000000000_0000000_1_0000_000
00000000000000000000000000000000000000000000000000_0000000_1_0000_000
00000000000000000000000000000000000000000000000000_0000000_1_0000_000
00000000000000000000000000000000000000000000000000_0000000_1_0000_000
00000000000000000000000000000000000000000000000000_0000000_1_0000_000
00000000000000000000000000000000000000000000000000_0000000_1_0000_000
00000000000000000000000000000000000000000000000000_0000000_1_0000_000
00001000000000000000000000000000000000000000000000_0000101_1_0000_001
01000111100000000000000000000000000000000000000000_0001001_1_1100_010
10000000000000000000000000000000000000000000000000_0000001_1_0000_000
10110000000000000000000000000000000000000000000000_0000100_1_0000_000
00000000000000000000000000000000000000000000000000_0000000_1_0000_000
00000000000000000000000000000000000000000000000000_0000000_1_0000_000
00000000000000000000000000000000000000000000000000_0000000_1_0000_000
00000000000000000000000000000000000000000000000000_0000000_1_0000_000
00000000000000000000000000000000000000000000000000_0000000_1_0000_000
00000000000000000000000000000000000000000000000000_0000000_1_0000_000
00000000000000000000000000000000000000000000000000_0000000_1_0000_000
00000000000000000000000000000000000000000000000000_0000000_1_0000_000
10000000000000000000000000000000000000000000000000_0000001_1_0000_000
00111000000000000000000000000000000000000000000000_0000111_1_0110_011
01001000100000000000000000000000000000000000000000_0001001_1_1010_011
01010100100111010000000000000000000000000000000000_0010000_1_0000_000
10000000000000000000000000000000000000000000000000_0000001_1_0000_000
10000000000000000000000000000000000000000000000000_0000001_1_0000_000
00000000000000000000000000000000000000000000000000_0000101_1_0000_001
10000000000000000000000000000000000000000000000000_0000010_1_0000_000
10000000000000000000000000000000000000000000000000_0000001_1_0000_000
10000000000000000000000000000000000000000000000000_0000001_1_0000_000
00001000000000000000000000000000000000000000000000_0000101_1_1000_001
11000000000000000000000000000000000000000000000000_0000010_1_0000_000
10000000000000000000000000000000000000000000000000_0000001_1_0000_000
10000000000000000000000000000000000000000000000000_0000001_1_0000_000
01011101110000000000000000000000000000000000000000_0001100_1_0000_011
01011000110000000000000000000000000000000000000000_0001110_1_0000_000
10000000000000000000000000000000000000000000000000_0000001_1_0000_000
10000000000000000000000000000000000000000000000000_0000001_1_0000_000
00001000000000000000000000000000000000000000000000_0000101_1_0000_001
10000000000000000000000000000000000000000000000000_0000010_1_0000_000
10000000000000000000000000000000000000000000000000_0000001_1_0000_000
10000000000000000000000000000000000000000000000000_0000001_1_0000_000
00001000000000000000000000000000000000000000000000_0000101_1_0000_001
01000000100000000000000000000000000000000000000000_0001010_1_0000_000
00001000000000000000000000000000000000000000000000_0000101_1_0000_001
00101000000000000000000000000000000000000000000000_0000110_1_0100_010
01011111101110100000000000000000000000000000000000_0001111_1_0000_100
10010000000000000000000000000000000000000000000000_0001000_1_0000_000
00000000000000000000000000000000000000000000000000_0000000_1_0000_000
00000000000000000000000000000000000000000000000000_0000000_1_0000_000
00000000000000000000000000000000000000000000000000_0000000_1_0000_000
00000000000000000000000000000000000000000000000000_0000000_1_0000_000
00000000000000000000000000000000000000000000000000_0000000_1_0000_000
00000000000000000000000000000000000000000000000000_0000000_1_0000_000
00000000000000000000000000000000000000000000000000_0000000_1_0000_000
00000000000000000000000000000000000000000000000000_0000000_1_0000_000
10000000000000000000000000000000000000000000000000_0000001_1_0000_000
01001000000000000000000000000000000000000000000000_0001001_1_0000_011
10000000000000000000000000000000000000000000000000_0000001_1_0000_000
10000000000000000000000000000000000000000000000000_0000100_1_0000_000
00000000000000000000000000000000000000000000000000_0000000_1_0000_000
00000000000000000000000000000000000000000000000000_0000000_1_0000_000
00000000000000000000000000000000000000000000000000_0000000_1_0000_000
00000000000000000000000000000000000000000000000000_0000000_1_0000_000
00000000000000000000000000000000000000000000000000_0000000_1_0000_000
00000000000000000000000000000000000000000000000000_0000000_1_0000_000
00000000000000000000000000000000000000000000000000_0000000_1_0000_000
00000000000000000000000000000000000000000000000000_0000000_1_0000_000
00011000000000000000000000000000000000000000000000_0000101_1_0000_001
00111010000000000000000000000000000000000000000000_0000111_1_0100_011
00111100000000000000000000000000000000000000000000_0000111_1_0001_100
01000001000100001000000000000000000000000000000000_0010001_1_0000_000
00000000000000000000000000000000000000000000000000_0000000_1_0000_000
00000000000000000000000000000000000000000000000000_0000000_1_0000_000
00000000000000000000000000000000000000000000000000_0000000_1_0000_000
00000000000000000000000000000000000000000000000000_0000000_1_0000_000
00000000000000000000000000000000000000000000000000_0000000_1_0000_000
00000000000000000000000000000000000000000000000000_0000000_1_0000_000
00000000000000000000000000000000000000000000000000_0000000_1_0000_000
00000000000000000000000000000000000000000000000000_0000000_1_0000_000
00100000000000000000000000000000000000000000000000_0000110_1_1100_010
00011000000000000000000000000000000000000000000000_0000101_1_0000_001
00110010000000000000000000000000000000000000000000_0000111_1_0000_010
11100000000000000000000000000000000000000000000000_0000110_1_0000_000
00000000000000000000000000000000000000000000000000_0000000_1_0000_000
00000000000000000000000000000000000000000000000000_0000000_1_0000_000
00000000000000000000000000000000000000000000000000_0000000_1_0000_000
00000000000000000000000000000000000000000000000000_0000000_1_0000_000
00000000000000000000000000000000000000000000000000_0000000_1_0000_000
00000000000000000000000000000000000000000000000000_0000000_1_0000_000
00000000000000000000000000000000000000000000000000_0000000_1_0000_000
00000000000000000000000000000000000000000000000000_0000000_1_0000_000
00010000000000000000000000000000000000000000000000_0000101_1_1000_001
01001100000000000000000000000000000000000000000000_0001001_1_1110_011
00000000000000000000000000000000000000000000000000_0000101_1_1000_001
01101110010110001111100000000000000000000000000000_0010101_1_0000_000
00000000000000000000000000000000000000000000000000_0000000_1_0000_000
00000000000000000000000000000000000000000000000000_0000000_1_0000_000
00000000000000000000000000000000000000000000000000_0000000_1_0000_000
00000000000000000000000000000000000000000000000000_0000000_1_0000_000
10000000000000000000000000000000000000000000000000_0000001_1_0000_000
10000000000000000000000000000000000000000000000000_0000001_1_0000_000
10000000000000000000000000000000000000000000000000_0000001_1_0000_000
01000000000000000000000000000000000000000000000000_0001001_1_0000_000
01101110000000010000000000000000000000000000000000_0010000_1_0100_010
10000000000000000000000000000000000000000000000000_0000001_1_0000_000
10000000000000000000000000000000000000000000000000_0000001_1_0000_000
01000011101000000000000000000000000000000000000000_0001011_1_0000_000
01011110000110000000000000000000000000000000000000_0001101_1_0000_011
00011000000000000000000000000000000000000000000000_0000101_1_0000_001
10000000000000000000000000000000000000000000000000_0000001_1_0000_000
10000000000000000000000000000000000000000000000000_0000101_1_0000_000
01001100100000000000000000000000000000000000000000_0001001_1_0000_011
10000000000000000000000000000000000000000000000000_0000001_1_0000_000
10000000000000000000000000000000000000000000000000_0000001_1_0000_000
10000000000000000000000000000000000000000000000000_0000100_1_0000_000
00011000000000000000000000000000000000000000000000_0000101_1_0000_001
01001100100000000000000000000000000000000000000000_0001001_1_0000_011
00111000000000000000000000000000000000000000000000_0000111_1_0000_011
10000000000000000000000000000000000000000000000000_0001000_1_0000_000
00000000000000000000000000000000000000000000000000_0000000_1_0000_000
00000000000000000000000000000000000000000000000000_0000000_1_0000_000
00000000000000000000000000000000000000000000000000_0000000_1_0000_000
00000000000000000000000000000000000000000000000000_0000000_1_0000_000
00000000000000000000000000000000000000000000000000_0000000_1_0000_000
00000000000000000000000000000000000000000000000000_0000000_1_0000_000
00000000000000000000000000000000000000000000000000_0000000_1_0000_000
00000000000000000000000000000000000000000000000000_0000000_1_0000_000
00000000000000000000000000000000000000000000000000_0000101_1_0000_001
00001000000000000000000000000000000000000000000000_0000101_1_1000_001
00011000000000000000000000000000000000000000000000_0000101_1_0000_001
01000111101000000000000000000000000000000000000000_0001100_1_0000_000
10000000000000000000000000000000000000000000000000_0000001_1_0000_000
10000000000000000000000000000000000000000000000000_0000001_1_0000_000
10000000000000000000000000000000000000000000000000_0000001_1_0000_000
00110100000000000000000000000000000000000000000000_0000110_1_0000_000
00000000000000000000000000000000000000000000000000_0000000_1_0000_000
00000000000000000000000000000000000000000000000000_0000000_1_0000_000
00000000000000000000000000000000000000000000000000_0000000_1_0000_000
00000000000000000000000000000000000000000000000000_0000000_1_0000_000
01001111100000000000000000000000000000000000000000_0001001_1_0010_011
00000000000000000000000000000000000000000000000000_0000101_1_1000_001
00111000000000000000000000000000000000000000000000_0000111_1_0110_011
00100001101100000000000000000000000000000000000000_0001100_1_0000_000
00100000000000000000000000000000000000000000000000_0000110_1_0000_010
10000000000000000000000000000000000000000000000000_0000001_1_0000_000
10000000000000000000000000000000000000000000000000_0000001_1_0000_000
10000000000000000000000000000000000000000000000000_0000011_1_0000_000
10000000000000000000000000000000000000000000000000_0000001_1_0000_000
10000000000000000000000000000000000000000000000000_0000001_1_0000_000
10000000000000000000000000000000000000000000000000_0000001_1_0000_000
00111010000000000000000000000000000000000000000000_0000111_1_0000_000
00110110000000000000000000000000000000000000000000_0000111_1_1100_011
00100100000000000000000000000000000000000000000000_0000110_1_0000_010
10000000000000000000000000000000000000000000000000_0000001_1_0000_000
11100000000000000000000000000000000000000000000000_0000110_1_0000_000
00000000000000000000000000000000000000000000000000_0000000_1_0000_000
00000000000000000000000000000000000000000000000000_0000000_1_0000_000
00000000000000000000000000000000000000000000000000_0000000_1_0000_000
00000000000000000000000000000000000000000000000000_0000000_1_0000_000
00000000000000000000000000000000000000000000000000_0000000_1_0000_000
00000000000000000000000000000000000000000000000000_0000000_1_0000_000
00000000000000000000000000000000000000000000000000_0000000_1_0000_000
00000000000000000000000000000000000000000000000000_0000000_1_0000_000
00010000000000000000000000000000000000000000000000_0000101_1_1000_001
00111000000000000000000000000000000000000000000000_0000111_1_0100_011
01010010000000000000000000000000000000000000000000_0001010_1_0000_010
01001110110100000000000000000000000000000000000000_0001111_1_0000_000
00000000000000000000000000000000000000000000000000_0000000_1_0000_000
00000000000000000000000000000000000000000000000000_0000000_1_0000_000
00000000000000000000000000000000000000000000000000_0000000_1_0000_000
00000000000000000000000000000000000000000000000000_0000000_1_0000_000
10000000000000000000000000000000000000000000000000_0000001_1_0000_000
00010000000000000000000000000000000000000000000000_0000101_1_1000_001
10000000000000000000000000000000000000000000000000_0000001_1_0000_000
11000000000000000000000000000000000000000000000000_0000010_1_0000_000
00101000000000000000000000000000000000000000000000_0000110_1_1100_010
00011000000000000000000000000000000000000000000000_0000101_1_1000_001
01101010000001010000000000000000000000000000000000_0010000_1_1000_010
01110111000000011010111110000000000000000000000000_0011010_1_0000_000
10000000000000000000000000000000000000000000000000_0000001_1_0000_000
10000000000000000000000000000000000000000000000000_0000001_1_0000_000
10000000000000000000000000000000000000000000000000_0000001_1_0000_000
01101110000010100000000000000000000000000000000000_0010000_1_0000_000
10000000000000000000000000000000000000000000000000_0000001_1_0000_000
10000000000000000000000000000000000000000000000000_0000001_1_0000_000
00000000000000000000000000000000000000000000000000_0000101_1_0000_001
01001001100000000000000000000000000000000000000000_0001010_1_0000_000
10000000000000000000000000000000000000000000000000_0000001_1_0000_000
01010010000000000000000000000000000000000000000000_0001010_1_0000_010
00000000000000000000000000000000000000000000000000_0000101_1_0000_001
01000000000000000000000000000000000000000000000000_0001100_1_0000_000
00000000000000000000000000000000000000000000000000_0000000_1_0000_000
00000000000000000000000000000000000000000000000000_0000000_1_0000_000
00000000000000000000000000000000000000000000000000_0000000_1_0000_000
00000000000000000000000000000000000000000000000000_0000000_1_0000_000
00000000000000000000000000000000000000000000000000_0000000_1_0000_000
00000000000000000000000000000000000000000000000000_0000000_1_0000_000
00000000000000000000000000000000000000000000000000_0000000_1_0000_000
00000000000000000000000000000000000000000000000000_0000000_1_0000_000
00001000000000000000000000000000000000000000000000_0000101_1_0000_001
00100100000000000000000000000000000000000000000000_0000110_1_1100_010
01000000100000000000000000000000000000000000000000_0001001_1_1000_001
01100000000110000111000000000000000000000000000000_0010100_1_0000_000
00000000000000000000000000000000000000000000000000_0000000_1_0000_000
00000000000000000000000000000000000000000000000000_0000000_1_0000_000
00000000000000000000000000000000000000000000000000_0000000_1_0000_000
00000000000000000000000000000000000000000000000000_0000000_1_0000_000
10000000000000000000000000000000000000000000000000_0000001_1_0000_000
10000000000000000000000000000000000000000000000000_0000001_1_0000_000
00100100000000000000000000000000000000000000000000_0000110_1_0000_010
10000000000000000000000000000000000000000000000000_0000011_1_0000_000
01100101000111000000000000000000000000000000000000_0010000_1_0000_100
01101110101110000000000000000000000000000000000000_0010000_1_0000_011
10000000000000000000000000000000000000000000000000_0000001_1_0000_000
01110001000100110000000000000000000000000000000000_0011100_1_0000_000
00001000000000000000000000000000000000000000000000_0000101_1_0000_001
01000011100000000000000000000000000000000000000000_0001001_1_0000_010
00001000000000000000000000000000000000000000000000_0000101_1_0000_001
01001101100000000000000000000000000000000000000000_0001101_1_0000_000
10000000000000000000000000000000000000000000000000_0000001_1_0000_000
00000000000000000000000000000000000000000000000000_0000101_1_0000_001
10000000000000000000000000000000000000000000000000_0000001_1_0000_000
00101000000000000000000000000000000000000000000000_0000110_1_0000_000
01010110100000000000000000000000000000000000000000_0001010_1_1110_011
01010111000000000000000000000000000000000000000000_0001010_1_0110_011
01011001100000000000000000000000000000000000000000_0001011_1_0010_011
11110110010000000000000000000000000000000000000000_0001010_1_0000_000
00000000000000000000000000000000000000000000000000_0000101_1_0000_001
00100000000000000000000000000000000000000000000000_0000110_1_1100_010
00000000000000000000000000000000000000000000000000_0000101_1_1000_001
10111000000000000000000000000000000000000000000000_0000101_1_0000_000
00000000000000000000000000000000000000000000000000_0000000_1_0000_000
00000000000000000000000000000000000000000000000000_0000000_1_0000_000
00000000000000000000000000000000000000000000000000_0000000_1_0000_000
00000000000000000000000000000000000000000000000000_0000000_1_0000_000
00101000000000000000000000000000000000000000000000_0000110_1_1100_010
00010000000000000000000000000000000000000000000000_0000101_1_1000_001
00010000000000000000000000000000000000000000000000_0000101_1_0000_001
01000000111100000000000000000000000000000000000000_0001101_1_0000_000
00000000000000000000000000000000000000000000000000_0000000_1_0000_000
00000000000000000000000000000000000000000000000000_0000000_1_0000_000
00000000000000000000000000000000000000000000000000_0000000_1_0000_000
00000000000000000000000000000000000000000000000000_0000000_1_0000_000
00000000000000000000000000000000000000000000000000_0000000_1_0000_000
00000000000000000000000000000000000000000000000000_0000000_1_0000_000
00000000000000000000000000000000000000000000000000_0000000_1_0000_000
00000000000000000000000000000000000000000000000000_0000000_1_0000_000
01100000010011000000000000000000000000000000000000_0010000_1_0100_011
01100100001000000000000000000000000000000000000000_0010000_1_0000_010
00100100000000000000000000000000000000000000000000_0000110_1_1100_010
10100011000000000000000000000000000000000000000000_0001000_1_0000_000
00000000000000000000000000000000000000000000000000_0000000_1_0000_000
00000000000000000000000000000000000000000000000000_0000000_1_0000_000
00000000000000000000000000000000000000000000000000_0000000_1_0000_000
00000000000000000000000000000000000000000000000000_0000000_1_0000_000
00001000000000000000000000000000000000000000000000_0000101_1_0000_001
10000000000000000000000000000000000000000000000000_0000001_1_0000_000
10000000000000000000000000000000000000000000000000_0000001_1_0000_000
10000000000000000000000000000000000000000000000000_0000010_1_0000_000
01001101000000000000000000000000000000000000000000_0001001_1_0100_011
01011110001010000000000000000000000000000000000000_0001101_1_1100_011
01010100110000000000000000000000000000000000000000_0001010_1_1100_010
01010111010101101100000000000000000000000000000000_0010010_1_0000_000
00000000000000000000000000000000000000000000000000_0000000_1_0000_000
00000000000000000000000000000000000000000000000000_0000000_1_0000_000
00000000000000000000000000000000000000000000000000_0000000_1_0000_000
00000000000000000000000000000000000000000000000000_0000000_1_0000_000
10000000000000000000000000000000000000000000000000_0000001_1_0000_000
00011000000000000000000000000000000000000000000000_0000101_1_1000_001
10000000000000000000000000000000000000000000000000_0000001_1_0000_000
01000000010000000000000000000000000000000000000000_0001010_1_0000_000
00001000000000000000000000000000000000000000000000_0000101_1_1000_001
00011000000000000000000000000000000000000000000000_0000101_1_0000_001
00110110000000000000000000000000000000000000000000_0000111_1_0010_011
01011011001100010000000000000000000000000000000000_0010000_1_0000_000
00000000000000000000000000000000000000000000000000_0000000_1_0000_000
00000000000000000000000000000000000000000000000000_0000000_1_0000_000
00000000000000000000000000000000000000000000000000_0000000_1_0000_000
00000000000000000000000000000000000000000000000000_0000000_1_0000_000
10000000000000000000000000000000000000000000000000_0000001_1_0000_000
00101100000000000000000000000000000000000000000000_0000110_1_0000_010
10000000000000000000000000000000000000000000000000_0000001_1_0000_000
10000000000000000000000000000000000000000000000000_0000011_1_0000_000
01000101000000000000000000000000000000000000000000_0001001_1_0100_010
01001000100000000000000000000000000000000000000000_0001001_1_1000_011
10000000000000000000000000000000000000000000000000_0000001_1_0000_000
01010011100110000000000000000000000000000000000000_0001111_1_0000_000
10000000000000000000000000000000000000000000000000_0000001_1_0000_000
00000000000000000000000000000000000000000000000000_0000101_1_0000_001
00011000000000000000000000000000000000000000000000_0000101_1_1000_001
10100000000000000000000000000000000000000000000000_0000011_1_0000_000
00000000000000000000000000000000000000000000000000_0000000_1_0000_000
00000000000000000000000000000000000000000000000000_0000000_1_0000_000
00000000000000000000000000000000000000000000000000_0000000_1_0000_000
00000000000000000000000000000000000000000000000000_0000000_1_0000_000
00100100000000000000000000000000000000000000000000_0000110_1_0000_010
00001000000000000000000000000000000000000000000000_0000101_1_0000_001
10000000000000000000000000000000000000000000000000_0000001_1_0000_000
00111100000000000000000000000000000000000000000000_0001011_1_0000_000
00000000000000000000000000000000000000000000000000_0000000_1_0000_000
00000000000000000000000000000000000000000000000000_0000000_1_0000_000
00000000000000000000000000000000000000000000000000_0000000_1_0000_000
00000000000000000000000000000000000000000000000000_0000000_1_0000_000
00000000000000000000000000000000000000000000000000_0000000_1_0000_000
00000000000000000000000000000000000000000000000000_0000000_1_0000_000
00000000000000000000000000000000000000000000000000_0000000_1_0000_000
00000000000000000000000000000000000000000000000000_0000000_1_0000_000
00110010000000000000000000000000000000000000000000_0000111_1_0000_010
01000101000000000000000000000000000000000000000000_0001001_1_1000_010
10000000000000000000000000000000000000000000000000_0000001_1_0000_000
00100001000000000000000000000000000000000000000000_0001001_1_0000_000
00000000000000000000000000000000000000000000000000_0000000_1_0000_000
00000000000000000000000000000000000000000000000000_0000000_1_0000_000
00000000000000000000000000000000000000000000000000_0000000_1_0000_000
00000000000000000000000000000000000000000000000000_0000000_1_0000_000
10000000000000000000000000000000000000000000000000_0000001_1_0000_000
00010000000000000000000000000000000000000000000000_0000101_1_0000_001
00001000000000000000000000000000000000000000000000_0000101_1_1000_001
10100000000000000000000000000000000000000000000000_0000011_1_0000_000
01011110011010000000000000000000000000000000000000_0001101_1_0101_100
01000001000000000000000000000000000000000000000000_0001001_1_0000_001
00011000000000000000000000000000000000000000000000_0000101_1_1000_001
01011000101010101000000000000000000000000000000000_0010001_1_0000_000
10000000000000000000000000000000000000000000000000_0000001_1_0000_000
00010000000000000000000000000000000000000000000000_0000101_1_0000_001
00101000000000000000000000000000000000000000000000_0000110_1_0000_010
10000000000000000000000000000000000000000000000000_0000100_1_0000_000
10000000000000000000000000000000000000000000000000_0000001_1_0000_000
10000000000000000000000000000000000000000000000000_0000001_1_0000_000
10000000000000000000000000000000000000000000000000_0000001_1_0000_000
01000001000000000000000000000000000000000000000000_0001001_1_0000_000
00000000000000000000000000000000000000000000000000_0000101_1_1000_001
00110000000000000000000000000000000000000000000000_0000111_1_1000_010
10000000000000000000000000000000000000000000000000_0000001_1_0000_000
01000001011000000000000000000000000000000000000000_0001100_1_0000_000
10000000000000000000000000000000000000000000000000_0000001_1_0000_000
00001000000000000000000000000000000000000000000000_0000101_1_1000_001
10000000000000000000000000000000000000000000000000_0000001_1_0000_000
11000000000000000000000000000000000000000000000000_0000010_1_0000_000
10000000000000000000000000000000000000000000000000_0000001_1_0000_000
10000000000000000000000000000000000000000000000000_0000001_1_0000_000
00000000000000000000000000000000000000000000000000_0000101_1_0000_001
10000000000000000000000000000000000000000000000000_0000010_1_0000_000
01000010000000000000000000000000000000000000000000_0001001_1_0100_010
01011001011000000000000000000000000000000000000000_0001011_1_0010_100
01000110100000000000000000000000000000000000000000_0001001_1_0000_010
01100011010001110100100000000000000000000000000000_0011000_1_0000_000
00010000000000000000000000000000000000000000000000_0000101_1_0000_001
10000000000000000000000000000000000000000000000000_0000001_1_0000_000
10000000000000000000000000000000000000000000000000_0000001_1_0000_000
00111000000000000000000000000000000000000000000000_0001000_1_0000_000
10000000000000000000000000000000000000000000000000_0000001_1_0000_000
00001000000000000000000000000000000000000000000000_0000101_1_0000_001
10000000000000000000000000000000000000000000000000_0000001_1_0000_000
00111000000000000000000000000000000000000000000000_0001000_1_0000_000
00101100000000000000000000000000000000000000000000_0000110_1_1000_010
00001000000000000000000000000000000000000000000000_0000101_1_1000_001
10000000000000000000000000000000000000000000000000_0000001_1_0000_000
01001001010100000000000000000000000000000000000000_0001100_1_0000_000
00000000000000000000000000000000000000000000000000_0000000_1_0000_000
00000000000000000000000000000000000000000000000000_0000000_1_0000_000
00000000000000000000000000000000000000000000000000_0000000_1_0000_000
00000000000000000000000000000000000000000000000000_0000000_1_0000_000
00000000000000000000000000000000000000000000000000_0000000_1_0000_000
00000000000000000000000000000000000000000000000000_0000000_1_0000_000
00000000000000000000000000000000000000000000000000_0000000_1_0000_000
00000000000000000000000000000000000000000000000000_0000000_1_0000_000
10000000000000000000000000000000000000000000000000_0000001_1_0000_000
00110100000000000000000000000000000000000000000000_0000111_1_1010_011
10000000000000000000000000000000000000000000000000_0000001_1_0000_000
01011000011101000000000000000000000000000000000000_0001110_1_0000_000
00000000000000000000000000000000000000000000000000_0000000_1_0000_000
00000000000000000000000000000000000000000000000000_0000000_1_0000_000
00000000000000000000000000000000000000000000000000_0000000_1_0000_000
00000000000000000000000000000000000000000000000000_0000000_1_0000_000
00000000000000000000000000000000000000000000000000_0000000_1_0000_000
00000000000000000000000000000000000000000000000000_0000000_1_0000_000
00000000000000000000000000000000000000000000000000_0000000_1_0000_000
00000000000000000000000000000000000000000000000000_0000000_1_0000_000
00001000000000000000000000000000000000000000000000_0000101_1_0000_001
00110110000000000000000000000000000000000000000000_0000111_1_1000_011
00100000000000000000000000000000000000000000000000_0000110_1_0000_010
00010100000000000000000000000000000000000000000000_0001010_1_0000_000
10000000000000000000000000000000000000000000000000_0000001_1_0000_000
00001000000000000000000000000000000000000000000000_0000101_1_0000_001
00001000000000000000000000000000000000000000000000_0000101_1_1000_001
10100000000000000000000000000000000000000000000000_0000011_1_0000_000
10000000000000000000000000000000000000000000000000_0000001_1_0000_000
00001000000000000000000000000000000000000000000000_0000101_1_0000_001
10000000000000000000000000000000000000000000000000_0000001_1_0000_000
10000000000000000000000000000000000000000000000000_0000010_1_0000_000
01000011100000000000000000000000000000000000000000_0001001_1_0100_010
01100000010001000000000000000000000000000000000000_0010000_1_0100_010
00011000000000000000000000000000000000000000000000_0000101_1_0000_001
00000101000000000000000000000000000000000000000000_0001001_1_0000_000
00000000000000000000000000000000000000000000000000_0000000_1_0000_000
00000000000000000000000000000000000000000000000000_0000000_1_0000_000
00000000000000000000000000000000000000000000000000_0000000_1_0000_000
00000000000000000000000000000000000000000000000000_0000000_1_0000_000
00001000000000000000000000000000000000000000000000_0000101_1_0000_001
10000000000000000000000000000000000000000000000000_0000001_1_0000_000
10000000000000000000000000000000000000000000000000_0000001_1_0000_000
01000001000000000000000000000000000000000000000000_0001010_1_0000_000
00010000000000000000000000000000000000000000000000_0000101_1_0000_001
10000000000000000000000000000000000000000000000000_0000001_1_0000_000
00010000000000000000000000000000000000000000000000_0000101_1_0000_001
01000000100000000000000000000000000000000000000000_0001011_1_0000_000
00000000000000000000000000000000000000000000000000_0000000_1_0000_000
00000000000000000000000000000000000000000000000000_0000000_1_0000_000
00000000000000000000000000000000000000000000000000_0000000_1_0000_000
00000000000000000000000000000000000000000000000000_0000000_1_0000_000
00000000000000000000000000000000000000000000000000_0000000_1_0000_000
00000000000000000000000000000000000000000000000000_0000000_1_0000_000
00000000000000000000000000000000000000000000000000_0000000_1_0000_000
00000000000000000000000000000000000000000000000000_0000000_1_0000_000
01001111100000000000000000000000000000000000000000_0001001_1_0000_011
00001000000000000000000000000000000000000000000000_0000101_1_0000_001
10000000000000000000000000000000000000000000000000_0000001_1_0000_000
01100000010101110000000000000000000000000000000000_0010100_1_0000_000
01000001100000000000000000000000000000000000000000_0001001_1_0000_001
10000000000000000000000000000000000000000000000000_0000001_1_0000_000
10000000000000000000000000000000000000000000000000_0000001_1_0000_000
10000000000000000000000000000000000000000000000000_0000010_1_0000_000
10000000000000000000000000000000000000000000000000_0000001_1_0000_000
00010000000000000000000000000000000000000000000000_0000101_1_0000_001
10000000000000000000000000000000000000000000000000_0000001_1_0000_000
10000000000000000000000000000000000000000000000000_0000010_1_0000_000
01001001100000000000000000000000000000000000000000_0001001_1_0000_001
01101110010010000000000000000000000000000000000000_0010000_1_0000_011
00111010000000000000000000000000000000000000000000_0000111_1_0100_011
01011111100101100000100000000000000000000000000000_0010110_1_0000_000
00110010000000000000000000000000000000000000000000_0000111_1_1000_010
00110000000000000000000000000000000000000000000000_0000111_1_1000_010
10000000000000000000000000000000000000000000000000_0000001_1_0000_000
11010000000000000000000000000000000000000000000000_0000101_1_0000_000
00110100000000000000000000000000000000000000000000_0000111_1_1110_011
10000000000000000000000000000000000000000000000000_0000001_1_0000_000
00101100000000000000000000000000000000000000000000_0000110_1_0000_010
11110000000000000000000000000000000000000000000000_0000110_1_0000_000
00010000000000000000000000000000000000000000000000_0000101_1_1000_001
00000000000000000000000000000000000000000000000000_0000101_1_1000_001
00010000000000000000000000000000000000000000000000_0000101_1_1000_001
11110000000000000000000000000000000000000000000000_0000100_1_0000_000
10000000000000000000000000000000000000000000000000_0000001_1_0000_000
10000000000000000000000000000000000000000000000000_0000001_1_0000_000
00000000000000000000000000000000000000000000000000_0000101_1_0000_001
10000000000000000000000000000000000000000000000000_0000010_1_0000_000
10000000000000000000000000000000000000000000000000_0000001_1_0000_000
10000000000000000000000000000000000000000000000000_0000001_1_0000_000
00100100000000000000000000000000000000000000000000_0000110_1_1100_010
11100000000000000000000000000000000000000000000000_0000011_1_0000_000
01101010000100000000000000000000000000000000000000_0010000_1_0100_010
00110110000000000000000000000000000000000000000000_0000111_1_1100_011
01011111100000000000000000000000000000000000000000_0001111_1_1101_100
01011100100101110110100000000000000000000000000000_0010101_1_0000_000
10000000000000000000000000000000000000000000000000_0000001_1_0000_000
00001000000000000000000000000000000000000000000000_0000101_1_0000_001
01000011100000000000000000000000000000000000000000_0001001_1_0000_010
10000000000000000000000000000000000000000000000000_0000100_1_0000_000
10000000000000000000000000000000000000000000000000_0000001_1_0000_000
10000000000000000000000000000000000000000000000000_0000001_1_0000_000
00000000000000000000000000000000000000000000000000_0000101_1_0000_001
00110000000000000000000000000000000000000000000000_0000111_1_0000_000
00110010000000000000000000000000000000000000000000_0000111_1_0100_010
01001001100000000000000000000000000000000000000000_0001001_1_1000_001
10000000000000000000000000000000000000000000000000_0000001_1_0000_000
10110000000000000000000000000000000000000000000000_0000100_1_0000_000
00000000000000000000000000000000000000000000000000_0000000_1_0000_000
00000000000000000000000000000000000000000000000000_0000000_1_0000_000
00000000000000000000000000000000000000000000000000_0000000_1_0000_000
00000000000000000000000000000000000000000000000000_0000000_1_0000_000
00000000000000000000000000000000000000000000000000_0000000_1_0000_000
00000000000000000000000000000000000000000000000000_0000000_1_0000_000
00000000000000000000000000000000000000000000000000_0000000_1_0000_000
00000000000000000000000000000000000000000000000000_0000000_1_0000_000
01010101110000000000000000000000000000000000000000_0001010_1_0010_011
00111010000000000000000000000000000000000000000000_0000111_1_1000_011
00110010000000000000000000000000000000000000000000_0000111_1_1100_010
00101001100110000000000000000000000000000000000000_0001101_1_0000_000
00001000000000000000000000000000000000000000000000_0000101_1_1000_001
00000000000000000000000000000000000000000000000000_0000101_1_0000_001
00110100000000000000000000000000000000000000000000_0000111_1_1110_011
00001011100000000000000000000000000000000000000000_0001001_1_0000_000
00000000000000000000000000000000000000000000000000_0000000_1_0000_000
00000000000000000000000000000000000000000000000000_0000000_1_0000_000
