01001100100000000000000000000000000000000000000000_0001001_1_1000_011
00100100000000000000000000000000000000000000000000_0000110_1_1000_010
01010011110000000000000000000000000000000000000000_0001010_1_0100_010
01100001111111011001001000000000000000000000000000_0010111_1_0000_000
10000000000000000000000000000000000000000000000000_0000001_1_0000_000
10000000000000000000000000000000000000000000000000_0000001_1_0000_000
10000000000000000000000000000000000000000000000000_0000001_1_0000_000
00111000000000000000000000000000000000000000000000_0000111_1_0000_000
00000000000000000000000000000000000000000000000000_0000000_1_0000_000
00000000000000000000000000000000000000000000000000_0000000_1_0000_000
00000000000000000000000000000000000000000000000000_0000000_1_0000_000
00000000000000000000000000000000000000000000000000_0000000_1_0000_000
01011000011000000000000000000000000000000000000000_0001011_1_0011_100
01100010100111000000000000000000000000000000000000_0010000_1_0111_100
01010000010000000000000000000000000000000000000000_0001010_1_0111_100
01011100100100110111011100000000000000000000000000_0011000_1_0000_000
00100100000000000000000000000000000000000000000000_0000110_1_0000_010
00011000000000000000000000000000000000000000000000_0000101_1_0000_001
10000000000000000000000000000000000000000000000000_0000001_1_0000_000
10000000000000000000000000000000000000000000000000_0000100_1_0000_000
10000000000000000000000000000000000000000000000000_0000001_1_0000_000
00011000000000000000000000000000000000000000000000_0000101_1_1000_001
00011000000000000000000000000000000000000000000000_0000101_1_0000_001
11000000000000000000000000000000000000000000000000_0000011_1_0000_000
01010100110000000000000000000000000000000000000000_0001010_1_1100_010
01000000100000000000000000000000000000000000000000_0001001_1_1000_001
00101000000000000000000000000000000000000000000000_0000110_1_1100_010
01010010111111100000000000000000000000000000000000_0001111_1_0000_000
00011000000000000000000000000000000000000000000000_0000101_1_1000_001
10000000000000000000000000000000000000000000000000_0000001_1_0000_000
10000000000000000000000000000000000000000000000000_0000001_1_0000_000
11000000000000000000000000000000000000000000000000_0000010_1_0000_000
00000000000000000000000000000000000000000000000000_0000000_1_0000_000
00000000000000000000000000000000000000000000000000_0000000_1_0000_000
00000000000000000000000000000000000000000000000000_0000000_1_0000_000
00000000000000000000000000000000000000000000000000_0000000_1_0000_000
10000000000000000000000000000000000000000000000000_0000001_1_0000_000
10000000000000000000000000000000000000000000000000_0000001_1_0000_000
10000000000000000000000000000000000000000000000000_0000001_1_0000_000
01101011100010000000000000000000000000000000000000_0010000_1_0000_000
10000000000000000000000000000000000000000000000000_0000001_1_0000_000
10000000000000000000000000000000000000000000000000_0000001_1_0000_000
10000000000000000000000000000000000000000000000000_0000001_1_0000_000
01000010000000000000000000000000000000000000000000_0001001_1_0000_000
00100000000000000000000000000000000000000000000000_0000110_1_0000_010
10000000000000000000000000000000000000000000000000_0000001_1_0000_000
00010000000000000000000000000000000000000000000000_0000101_1_0000_001
01100010100110110000000000000000000000000000000000_0010011_1_0000_000
01000010000000000000000000000000000000000000000000_0001001_1_0100_010
01011100100000000000000000000000000000000000000000_0001100_1_0010_011
01000000000000000000000000000000000000000000000000_0001001_1_1000_001
10100110000000000000000000000000000000000000000000_0000111_1_0000_000
00000000000000000000000000000000000000000000000000_0000101_1_0000_001
10000000000000000000000000000000000000000000000000_0000001_1_0000_000
10000000000000000000000000000000000000000000000000_0000001_1_0000_000
10000000000000000000000000000000000000000000000000_0000010_1_0000_000
00010000000000000000000000000000000000000000000000_0000101_1_0000_001
00101000000000000000000000000000000000000000000000_0000110_1_0000_010
10000000000000000000000000000000000000000000000000_0000001_1_0000_000
10000000000000000000000000000000000000000000000000_0000100_1_0000_000
00010000000000000000000000000000000000000000000000_0000101_1_1000_001
00000000000000000000000000000000000000000000000000_0000101_1_0000_001
00100000000000000000000000000000000000000000000000_0000110_1_0000_010
01001010110000000000000000000000000000000000000000_0001101_1_0000_000
00001000000000000000000000000000000000000000000000_0000101_1_0000_001
00100000000000000000000000000000000000000000000000_0000110_1_0000_010
10000000000000000000000000000000000000000000000000_0000001_1_0000_000
10000000000000000000000000000000000000000000000000_0000100_1_0000_000
00000000000000000000000000000000000000000000000000_0000000_1_0000_000
00000000000000000000000000000000000000000000000000_0000000_1_0000_000
00000000000000000000000000000000000000000000000000_0000000_1_0000_000
00000000000000000000000000000000000000000000000000_0000000_1_0000_000
10000000000000000000000000000000000000000000000000_0000001_1_0000_000
01100111000100100000000000000000000000000000000000_0010000_1_1111_100
01000011100000000000000000000000000000000000000000_0001001_1_1000_010
01011101110011111000000000000000000000000000000000_0010010_1_0000_000
00110100000000000000000000000000000000000000000000_0000111_1_0000_011
10000000000000000000000000000000000000000000000000_0000001_1_0000_000
10000000000000000000000000000000000000000000000000_0000001_1_0000_000
00101000000000000000000000000000000000000000000000_0001000_1_0000_000
10000000000000000000000000000000000000000000000000_0000001_1_0000_000
00001000000000000000000000000000000000000000000000_0000101_1_0000_001
00000000000000000000000000000000000000000000000000_0000101_1_0000_001
00101000000000000000000000000000000000000000000000_0000111_1_0000_000
10000000000000000000000000000000000000000000000000_0000001_1_0000_000
00010000000000000000000000000000000000000000000000_0000101_1_1000_001
10000000000000000000000000000000000000000000000000_0000001_1_0000_000
11000000000000000000000000000000000000000000000000_0000010_1_0000_000
00000000000000000000000000000000000000000000000000_0000000_1_0000_000
00000000000000000000000000000000000000000000000000_0000000_1_0000_000
00000000000000000000000000000000000000000000000000_0000000_1_0000_000
00000000000000000000000000000000000000000000000000_0000000_1_0000_000
00000000000000000000000000000000000000000000000000_0000000_1_0000_000
00000000000000000000000000000000000000000000000000_0000000_1_0000_000
00000000000000000000000000000000000000000000000000_0000000_1_0000_000
00000000000000000000000000000000000000000000000000_0000000_1_0000_000
01000000100000000000000000000000000000000000000000_0001001_1_0000_001
01010000010000000000000000000000000000000000000000_0001010_1_1111_100
00101100000000000000000000000000000000000000000000_0000110_1_1000_010
01000000101111100000000000000000000000000000000000_0010000_1_0000_000
00111000000000000000000000000000000000000000000000_0000111_1_0000_011
10000000000000000000000000000000000000000000000000_0000001_1_0000_000
10000000000000000000000000000000000000000000000000_0000001_1_0000_000
10000000000000000000000000000000000000000000000000_0000100_1_0000_000
10000000000000000000000000000000000000000000000000_0000001_1_0000_000
10000000000000000000000000000000000000000000000000_0000001_1_0000_000
00001000000000000000000000000000000000000000000000_0000101_1_0000_001
01000000100000000000000000000000000000000000000000_0001010_1_0000_000
10000000000000000000000000000000000000000000000000_0000001_1_0000_000
00011000000000000000000000000000000000000000000000_0000101_1_1000_001
00001000000000000000000000000000000000000000000000_0000101_1_1000_001
11100000000000000000000000000000000000000000000000_0000011_1_0000_000
00000000000000000000000000000000000000000000000000_0000000_1_0000_000
00000000000000000000000000000000000000000000000000_0000000_1_0000_000
00000000000000000000000000000000000000000000000000_0000000_1_0000_000
00000000000000000000000000000000000000000000000000_0000000_1_0000_000
00000000000000000000000000000000000000000000000000_0000000_1_0000_000
00000000000000000000000000000000000000000000000000_0000000_1_0000_000
00000000000000000000000000000000000000000000000000_0000000_1_0000_000
00000000000000000000000000000000000000000000000000_0000000_1_0000_000
01001011100000000000000000000000000000000000000000_0001001_1_1110_011
00110000000000000000000000000000000000000000000000_0000111_1_1100_010
10000000000000000000000000000000000000000000000000_0000001_1_0000_000
00101111110000000000000000000000000000000000000000_0001010_1_0000_000
00000000000000000000000000000000000000000000000000_0000101_1_0000_001
10000000000000000000000000000000000000000000000000_0000001_1_0000_000
00000000000000000000000000000000000000000000000000_0000101_1_1000_001
00110001000000000000000000000000000000000000000000_0001000_1_0000_000
00000000000000000000000000000000000000000000000000_0000000_1_0000_000
00000000000000000000000000000000000000000000000000_0000000_1_0000_000
00000000000000000000000000000000000000000000000000_0000000_1_0000_000
00000000000000000000000000000000000000000000000000_0000000_1_0000_000
01011011100000000000000000000000000000000000000000_0001011_1_0000_100
00000000000000000000000000000000000000000000000000_0000101_1_1000_001
00100100000000000000000000000000000000000000000000_0000110_1_1100_010
01101000011101100000111000000000000000000000000000_0010111_1_0000_000
00011000000000000000000000000000000000000000000000_0000101_1_0000_001
00100000000000000000000000000000000000000000000000_0000110_1_1100_010
00001000000000000000000000000000000000000000000000_0000101_1_1000_001
00111010111000000000000000000000000000000000000000_0001011_1_0000_000
10000000000000000000000000000000000000000000000000_0000001_1_0000_000
00011000000000000000000000000000000000000000000000_0000101_1_1000_001
10000000000000000000000000000000000000000000000000_0000001_1_0000_000
11000000000000000000000000000000000000000000000000_0000010_1_0000_000
01010011100000000000000000000000000000000000000000_0001010_1_1000_010
01000000000000000000000000000000000000000000000000_0001001_1_1000_001
00110110000000000000000000000000000000000000000000_0000111_1_0000_011
00001010000000000000000000000000000000000000000000_0001010_1_0000_000
10000000000000000000000000000000000000000000000000_0000001_1_0000_000
00111000000000000000000000000000000000000000000000_0000111_1_1110_011
00101000000000000000000000000000000000000000000000_0000110_1_1100_010
00111111001111100000000000000000000000000000000000_0001111_1_0000_000
00110000000000000000000000000000000000000000000000_0000111_1_1000_010
10000000000000000000000000000000000000000000000000_0000001_1_0000_000
10000000000000000000000000000000000000000000000000_0000001_1_0000_000
11000000000000000000000000000000000000000000000000_0000011_1_0000_000
01110001101011011011100000000000000000000000000000_0010101_1_1111_100
01100110011000000000000000000000000000000000000000_0010000_1_1100_011
10000000000000000000000000000000000000000000000000_0000001_1_0000_000
01001100011111100000000000000000000000000000000000_0010000_1_0000_000
00000000000000000000000000000000000000000000000000_0000000_1_0000_000
00000000000000000000000000000000000000000000000000_0000000_1_0000_000
00000000000000000000000000000000000000000000000000_0000000_1_0000_000
00000000000000000000000000000000000000000000000000_0000000_1_0000_000
00000000000000000000000000000000000000000000000000_0000000_1_0000_000
00000000000000000000000000000000000000000000000000_0000000_1_0000_000
00000000000000000000000000000000000000000000000000_0000000_1_0000_000
00000000000000000000000000000000000000000000000000_0000000_1_0000_000
01101100101110100000000000000000000000000000000000_0010000_1_1100_100
10000000000000000000000000000000000000000000000000_0000001_1_0000_000
10000000000000000000000000000000000000000000000000_0000001_1_0000_000
00101110000000000000000000000000000000000000000000_0001001_1_0000_000
00110010000000000000000000000000000000000000000000_0000111_1_0100_010
10000000000000000000000000000000000000000000000000_0000001_1_0000_000
10000000000000000000000000000000000000000000000000_0000001_1_0000_000
10100000000000000000000000000000000000000000000000_0000011_1_0000_000
00000000000000000000000000000000000000000000000000_0000000_1_0000_000
00000000000000000000000000000000000000000000000000_0000000_1_0000_000
00000000000000000000000000000000000000000000000000_0000000_1_0000_000
00000000000000000000000000000000000000000000000000_0000000_1_0000_000
01001001100000000000000000000000000000000000000000_0001001_1_0000_001
10000000000000000000000000000000000000000000000000_0000001_1_0000_000
00100100000000000000000000000000000000000000000000_0000110_1_0000_010
00111010000000000000000000000000000000000000000000_0001010_1_0000_000
00000000000000000000000000000000000000000000000000_0000000_1_0000_000
00000000000000000000000000000000000000000000000000_0000000_1_0000_000
00000000000000000000000000000000000000000000000000_0000000_1_0000_000
00000000000000000000000000000000000000000000000000_0000000_1_0000_000
00000000000000000000000000000000000000000000000000_0000000_1_0000_000
00000000000000000000000000000000000000000000000000_0000000_1_0000_000
00000000000000000000000000000000000000000000000000_0000000_1_0000_000
00000000000000000000000000000000000000000000000000_0000000_1_0000_000
01010000000000000000000000000000000000000000000000_0001010_1_1110_100
00110010000000000000000000000000000000000000000000_0000111_1_1100_010
00110110000000000000000000000000000000000000000000_0000111_1_1010_011
01100000010010101110111010000000000000000000000000_0011001_1_0000_000
00001000000000000000000000000000000000000000000000_0000101_1_0000_001
00000000000000000000000000000000000000000000000000_0000101_1_0000_001
01000010000000000000000000000000000000000000000000_0001001_1_1100_010
10011000000000000000000000000000000000000000000000_0000101_1_0000_000
00100000000000000000000000000000000000000000000000_0000110_1_0000_010
01001100100000000000000000000000000000000000000000_0001001_1_1100_011
01000011000000000000000000000000000000000000000000_0001001_1_1100_010
00101001101100000000000000000000000000000000000000_0001100_1_0000_000
10000000000000000000000000000000000000000000000000_0000001_1_0000_000
10000000000000000000000000000000000000000000000000_0000001_1_0000_000
01000011000000000000000000000000000000000000000000_0001001_1_1100_010
01111100000000010100000000100001100000000000000000_0100001_1_0000_000
10000000000000000000000000000000000000000000000000_0000001_1_0000_000
10000000000000000000000000000000000000000000000000_0000001_1_0000_000
10000000000000000000000000000000000000000000000000_0000001_1_0000_000
01100010100100110000000000000000000000000000000000_0010000_1_0000_000
10000000000000000000000000000000000000000000000000_0000001_1_0000_000
10000000000000000000000000000000000000000000000000_0000001_1_0000_000
10000000000000000000000000000000000000000000000000_0000001_1_0000_000
01100000010000100000000000000000000000000000000000_0010000_1_0000_000
01011101100000000000000000000000000000000000000000_0001100_1_1100_010
01100000000011000000000000000000000000000000000000_0010000_1_1000_010
00000000000000000000000000000000000000000000000000_0000101_1_1000_001
11110100000000000000000000000000000000000000000000_0000110_1_0000_000
00001000000000000000000000000000000000000000000000_0000101_1_0000_001
10000000000000000000000000000000000000000000000000_0000001_1_0000_000
10000000000000000000000000000000000000000000000000_0000001_1_0000_000
10000000000000000000000000000000000000000000000000_0000010_1_0000_000
00000000000000000000000000000000000000000000000000_0000000_1_0000_000
00000000000000000000000000000000000000000000000000_0000000_1_0000_000
00000000000000000000000000000000000000000000000000_0000000_1_0000_000
00000000000000000000000000000000000000000000000000_0000000_1_0000_000
10000000000000000000000000000000000000000000000000_0000001_1_0000_000
10000000000000000000000000000000000000000000000000_0000001_1_0000_000
10000000000000000000000000000000000000000000000000_0000001_1_0000_000
00000000000000000000000000000000000000000000000000_0000100_1_0000_000
00000000000000000000000000000000000000000000000000_0000000_1_0000_000
00000000000000000000000000000000000000000000000000_0000000_1_0000_000
00000000000000000000000000000000000000000000000000_0000000_1_0000_000
00000000000000000000000000000000000000000000000000_0000000_1_0000_000
00000000000000000000000000000000000000000000000000_0000000_1_0000_000
00000000000000000000000000000000000000000000000000_0000000_1_0000_000
00000000000000000000000000000000000000000000000000_0000000_1_0000_000
00000000000000000000000000000000000000000000000000_0000000_1_0000_000
01000010000000000000000000000000000000000000000000_0001001_1_1100_010
00110000000000000000000000000000000000000000000000_0000111_1_1000_010
01100110011101110000000000000000000000000000000000_0010000_1_0100_100
01111000011000000101011110111001000000000000000000_0100010_1_0000_000
10000000000000000000000000000000000000000000000000_0000001_1_0000_000
00101100000000000000000000000000000000000000000000_0000110_1_0000_010
01110001010010011101100000000000000000000000000000_0010101_1_0000_100
01110001111110100111100000000000000000000000000000_0011011_1_0000_000
10000000000000000000000000000000000000000000000000_0000001_1_0000_000
10000000000000000000000000000000000000000000000000_0000001_1_0000_000
00010000000000000000000000000000000000000000000000_0000101_1_1000_001
01001000010000000000000000000000000000000000000000_0001010_1_0000_000
01110101101000000000100000000000000000000000000000_0010101_1_0010_011
01100100001101010000000000000000000000000000000000_0010000_1_1110_011
01110001100011010000100000000000000000000000000000_0010101_1_1011_100
10011111011000000000000000000000000000000000000000_0001011_1_0000_000
00100000000000000000000000000000000000000000000000_0000110_1_1100_010
00000000000000000000000000000000000000000000000000_0000101_1_0000_001
10000000000000000000000000000000000000000000000000_0000001_1_0000_000
11100000000000000000000000000000000000000000000000_0000100_1_0000_000
00100100000000000000000000000000000000000000000000_0000110_1_1100_010
00011000000000000000000000000000000000000000000000_0000101_1_1000_001
10000000000000000000000000000000000000000000000000_0000001_1_0000_000
11110000000000000000000000000000000000000000000000_0000100_1_0000_000
10000000000000000000000000000000000000000000000000_0000001_1_0000_000
10000000000000000000000000000000000000000000000000_0000001_1_0000_000
10000000000000000000000000000000000000000000000000_0000001_1_0000_000
10000000000000000000000000000000000000000000000000_0000001_1_0000_000
00000000000000000000000000000000000000000000000000_0000101_1_1000_001
10000000000000000000000000000000000000000000000000_0000001_1_0000_000
10000000000000000000000000000000000000000000000000_0000001_1_0000_000
11000000000000000000000000000000000000000000000000_0000010_1_0000_000
00000000000000000000000000000000000000000000000000_0000000_1_0000_000
00000000000000000000000000000000000000000000000000_0000000_1_0000_000
00000000000000000000000000000000000000000000000000_0000000_1_0000_000
00000000000000000000000000000000000000000000000000_0000000_1_0000_000
10000000000000000000000000000000000000000000000000_0000001_1_0000_000
10000000000000000000000000000000000000000000000000_0000001_1_0000_000
10000000000000000000000000000000000000000000000000_0000001_1_0000_000
00000000000000000000000000000000000000000000000000_0000100_1_0000_000
00000000000000000000000000000000000000000000000000_0000000_1_0000_000
00000000000000000000000000000000000000000000000000_0000000_1_0000_000
00000000000000000000000000000000000000000000000000_0000000_1_0000_000
00000000000000000000000000000000000000000000000000_0000000_1_0000_000
00000000000000000000000000000000000000000000000000_0000000_1_0000_000
00000000000000000000000000000000000000000000000000_0000000_1_0000_000
00000000000000000000000000000000000000000000000000_0000000_1_0000_000
00000000000000000000000000000000000000000000000000_0000000_1_0000_000
00101100000000000000000000000000000000000000000000_0000110_1_1000_010
10000000000000000000000000000000000000000000000000_0000001_1_0000_000
10000000000000000000000000000000000000000000000000_0000001_1_0000_000
11000000000000000000000000000000000000000000000000_0000011_1_0000_000
00000000000000000000000000000000000000000000000000_0000000_1_0000_000
00000000000000000000000000000000000000000000000000_0000000_1_0000_000
00000000000000000000000000000000000000000000000000_0000000_1_0000_000
00000000000000000000000000000000000000000000000000_0000000_1_0000_000
00000000000000000000000000000000000000000000000000_0000000_1_0000_000
00000000000000000000000000000000000000000000000000_0000000_1_0000_000
00000000000000000000000000000000000000000000000000_0000000_1_0000_000
00000000000000000000000000000000000000000000000000_0000000_1_0000_000
00101100000000000000000000000000000000000000000000_0000110_1_0000_010
01011101111100000000000000000000000000000000000000_0001100_1_1010_100
10000000000000000000000000000000000000000000000000_0000001_1_0000_000
00000010100000000000000000000000000000000000000000_0001010_1_0000_000
00010000000000000000000000000000000000000000000000_0000101_1_1000_001
00110010000000000000000000000000000000000000000000_0000111_1_0100_010
00101100000000000000000000000000000000000000000000_0000110_1_0000_010
11010000000000000000000000000000000000000000000000_0000110_1_0000_000
00100100000000000000000000000000000000000000000000_0000110_1_0000_010
00011000000000000000000000000000000000000000000000_0000101_1_0000_001
00000000000000000000000000000000000000000000000000_0000101_1_1000_001
10001000000000000000000000000000000000000000000000_0000101_1_0000_000
01011111101010000000000000000000000000000000000000_0001111_1_1100_011
01011111100101000000000000000000000000000000000000_0001111_1_1110_011
01011111100110000000000000000000000000000000000000_0001111_1_1010_011
11101111010000000000000000000000000000000000000000_0001010_1_0000_000
10000000000000000000000000000000000000000000000000_0000001_1_0000_000
00111000000000000000000000000000000000000000000000_0000111_1_1110_011
01000011100000000000000000000000000000000000000000_0001001_1_0000_010
01000011011100000000000000000000000000000000000000_0001110_1_0000_000
10000000000000000000000000000000000000000000000000_0000001_1_0000_000
10000000000000000000000000000000000000000000000000_0000001_1_0000_000
10000000000000000000000000000000000000000000000000_0000001_1_0000_000
00010000000000000000000000000000000000000000000000_0000100_1_0000_000
00011000000000000000000000000000000000000000000000_0000101_1_0000_001
00001000000000000000000000000000000000000000000000_0000101_1_1000_001
01100100011000000000000000000000000000000000000000_0010000_1_0010_011
01100011110110010100100000000000000000000000000000_0010101_1_0000_000
10000000000000000000000000000000000000000000000000_0000001_1_0000_000
10000000000000000000000000000000000000000000000000_0000001_1_0000_000
00110000000000000000000000000000000000000000000000_0000111_1_0000_010
00000000000000000000000000000000000000000000000000_0000110_1_0000_000
00000000000000000000000000000000000000000000000000_0000000_1_0000_000
00000000000000000000000000000000000000000000000000_0000000_1_0000_000
00000000000000000000000000000000000000000000000000_0000000_1_0000_000
00000000000000000000000000000000000000000000000000_0000000_1_0000_000
00011000000000000000000000000000000000000000000000_0000101_1_0000_001
01000000100000000000000000000000000000000000000000_0001001_1_0000_001
00101000000000000000000000000000000000000000000000_0000110_1_0100_010
01010001100001000000000000000000000000000000000000_0001110_1_0000_000
00001000000000000000000000000000000000000000000000_0000101_1_1000_001
10000000000000000000000000000000000000000000000000_0000001_1_0000_000
10000000000000000000000000000000000000000000000000_0000001_1_0000_000
01010101001000000000000000000000000000000000000000_0001011_1_0000_000
00000000000000000000000000000000000000000000000000_0000000_1_0000_000
00000000000000000000000000000000000000000000000000_0000000_1_0000_000
00000000000000000000000000000000000000000000000000_0000000_1_0000_000
00000000000000000000000000000000000000000000000000_0000000_1_0000_000
10000000000000000000000000000000000000000000000000_0000001_1_0000_000
10000000000000000000000000000000000000000000000000_0000001_1_0000_000
01010000010000000000000000000000000000000000000000_0001010_1_1111_100
01111000000110000000010011111100000000000000000000_0011110_1_0000_000
10000000000000000000000000000000000000000000000000_0000001_1_0000_000
00001000000000000000000000000000000000000000000000_0000101_1_0000_001
10000000000000000000000000000000000000000000000000_0000001_1_0000_000
01000011000000000000000000000000000000000000000000_0001010_1_0000_000
00000000000000000000000000000000000000000000000000_0000000_1_0000_000
00000000000000000000000000000000000000000000000000_0000000_1_0000_000
00000000000000000000000000000000000000000000000000_0000000_1_0000_000
00000000000000000000000000000000000000000000000000_0000000_1_0000_000
01011001110000000000000000000000000000000000000000_0001011_1_0110_011
01010011010000000000000000000000000000000000000000_0001010_1_0000_010
01001100000000000000000000000000000000000000000000_0001001_1_0110_011
01100110011101100110001100000000000000000000000000_0011000_1_0000_000
10000000000000000000000000000000000000000000000000_0000001_1_0000_000
10000000000000000000000000000000000000000000000000_0000001_1_0000_000
00110100000000000000000000000000000000000000000000_0000111_1_0000_011
01000000100000000000000000000000000000000000000000_0001100_1_0000_000
10000000000000000000000000000000000000000000000000_0000001_1_0000_000
00101000000000000000000000000000000000000000000000_0000110_1_1100_010
10000000000000000000000000000000000000000000000000_0000001_1_0000_000
11100000000000000000000000000000000000000000000000_0000011_1_0000_000
00001000000000000000000000000000000000000000000000_0000101_1_1000_001
00100100000000000000000000000000000000000000000000_0000110_1_1100_010
01011100100000000000000000000000000000000000000000_0001100_1_0000_011
01001101111100000000000000000000000000000000000000_0001111_1_0000_000
10000000000000000000000000000000000000000000000000_0000001_1_0000_000
00011000000000000000000000000000000000000000000000_0000101_1_0000_001
00001000000000000000000000000000000000000000000000_0000101_1_1000_001
10100000000000000000000000000000000000000000000000_0000011_1_0000_000
10000000000000000000000000000000000000000000000000_0000001_1_0000_000
10000000000000000000000000000000000000000000000000_0000001_1_0000_000
00011000000000000000000000000000000000000000000000_0000101_1_0000_001
10000000000000000000000000000000000000000000000000_0000010_1_0000_000
10000000000000000000000000000000000000000000000000_0000001_1_0000_000
00011000000000000000000000000000000000000000000000_0000101_1_1000_001
00111010000000000000000000000000000000000000000000_0000111_1_1000_011
11100000000000000000000000000000000000000000000000_0000101_1_0000_000
00000000000000000000000000000000000000000000000000_0000000_1_0000_000
00000000000000000000000000000000000000000000000000_0000000_1_0000_000
00000000000000000000000000000000000000000000000000_0000000_1_0000_000
00000000000000000000000000000000000000000000000000_0000000_1_0000_000
00000000000000000000000000000000000000000000000000_0000000_1_0000_000
00000000000000000000000000000000000000000000000000_0000000_1_0000_000
00000000000000000000000000000000000000000000000000_0000000_1_0000_000
00000000000000000000000000000000000000000000000000_0000000_1_0000_000
10000000000000000000000000000000000000000000000000_0000001_1_0000_000
10000000000000000000000000000000000000000000000000_0000001_1_0000_000
01010011000000000000000000000000000000000000000000_0001010_1_0000_010
01100000100101110000000000000000000000000000000000_0010010_1_0000_000
10000000000000000000000000000000000000000000000000_0000001_1_0000_000
10000000000000000000000000000000000000000000000000_0000001_1_0000_000
00111100000000000000000000000000000000000000000000_0000111_1_0011_100
01000001100110000000000000000000000000000000000000_0001101_1_0000_000
00000000000000000000000000000000000000000000000000_0000000_1_0000_000
00000000000000000000000000000000000000000000000000_0000000_1_0000_000
00000000000000000000000000000000000000000000000000_0000000_1_0000_000
00000000000000000000000000000000000000000000000000_0000000_1_0000_000
01101100010111000000000000000000000000000000000000_0010000_1_1110_100
00111100000000000000000000000000000000000000000000_0000111_1_1100_100
01011111000010000000000000000000000000000000000000_0001110_1_0000_100
01001101111101100000000000000000000000000000000000_0010101_1_0000_000
10000000000000000000000000000000000000000000000000_0000001_1_0000_000
00010000000000000000000000000000000000000000000000_0000101_1_1000_001
00100000000000000000000000000000000000000000000000_0000110_1_1100_010
00111001110000000000000000000000000000000000000000_0001010_1_0000_000
00001000000000000000000000000000000000000000000000_0000101_1_0000_001
10000000000000000000000000000000000000000000000000_0000001_1_0000_000
00000000000000000000000000000000000000000000000000_0000101_1_0000_001
10000000000000000000000000000000000000000000000000_0000011_1_0000_000
01100110101000110000000000000000000000000000000000_0010000_1_0000_100
01001011000000000000000000000000000000000000000000_0001001_1_0100_011
00101100000000000000000000000000000000000000000000_0000110_1_1000_010
00110100000101000000000000000000000000000000000000_0001111_1_0000_000
10000000000000000000000000000000000000000000000000_0000001_1_0000_000
10000000000000000000000000000000000000000000000000_0000001_1_0000_000
00101100000000000000000000000000000000000000000000_0000110_1_1100_010
00001100000000000000000000000000000000000000000000_0000110_1_0000_000
00000000000000000000000000000000000000000000000000_0000000_1_0000_000
00000000000000000000000000000000000000000000000000_0000000_1_0000_000
00000000000000000000000000000000000000000000000000_0000000_1_0000_000
00000000000000000000000000000000000000000000000000_0000000_1_0000_000
00110110000000000000000000000000000000000000000000_0000111_1_0000_011
10000000000000000000000000000000000000000000000000_0000001_1_0000_000
10000000000000000000000000000000000000000000000000_0000001_1_0000_000
01111000000000010001001010000000000000000000000000_0011101_1_0000_000
00000000000000000000000000000000000000000000000000_0000000_1_0000_000
00000000000000000000000000000000000000000000000000_0000000_1_0000_000
00000000000000000000000000000000000000000000000000_0000000_1_0000_000
00000000000000000000000000000000000000000000000000_0000000_1_0000_000
00000000000000000000000000000000000000000000000000_0000000_1_0000_000
00000000000000000000000000000000000000000000000000_0000000_1_0000_000
00000000000000000000000000000000000000000000000000_0000000_1_0000_000
00000000000000000000000000000000000000000000000000_0000000_1_0000_000
01011011001000000000000000000000000000000000000000_0001011_1_0011_100
01000000100000000000000000000000000000000000000000_0001001_1_0000_001
00010000000000000000000000000000000000000000000000_0000101_1_1000_001
00000011010000000000000000000000000000000000000000_0001010_1_0000_000
00000000000000000000000000000000000000000000000000_0000000_1_0000_000
00000000000000000000000000000000000000000000000000_0000000_1_0000_000
00000000000000000000000000000000000000000000000000_0000000_1_0000_000
00000000000000000000000000000000000000000000000000_0000000_1_0000_000
01011010001000000000000000000000000000000000000000_0001011_1_0000_100
01010001100000000000000000000000000000000000000000_0001010_1_0000_100
00000000000000000000000000000000000000000000000000_0000101_1_0000_001
10000000000000000000000000000000000000000000000000_0001010_1_0000_000
00000000000000000000000000000000000000000000000000_0000101_1_0000_001
00001000000000000000000000000000000000000000000000_0000101_1_0000_001
01001100000000000000000000000000000000000000000000_0001001_1_0000_011
01111101111000010000001110101100000000000000000000_0100100_1_0000_000
10000000000000000000000000000000000000000000000000_0000001_1_0000_000
10000000000000000000000000000000000000000000000000_0000001_1_0000_000
10000000000000000000000000000000000000000000000000_0000001_1_0000_000
00010000000000000000000000000000000000000000000000_0000100_1_0000_000
00000000000000000000000000000000000000000000000000_0000000_1_0000_000
00000000000000000000000000000000000000000000000000_0000000_1_0000_000
00000000000000000000000000000000000000000000000000_0000000_1_0000_000
00000000000000000000000000000000000000000000000000_0000000_1_0000_000
10000000000000000000000000000000000000000000000000_0000001_1_0000_000
10000000000000000000000000000000000000000000000000_0000001_1_0000_000
00110100000000000000000000000000000000000000000000_0000111_1_0000_011
01100100100010010000000000000000000000000000000000_0010011_1_0000_000
10000000000000000000000000000000000000000000000000_0000001_1_0000_000
10000000000000000000000000000000000000000000000000_0000001_1_0000_000
00001000000000000000000000000000000000000000000000_0000101_1_0000_001
01011011100000000000000000000000000000000000000000_0001100_1_0000_000
10000000000000000000000000000000000000000000000000_0000001_1_0000_000
10000000000000000000000000000000000000000000000000_0000001_1_0000_000
00100000000000000000000000000000000000000000000000_0000110_1_0000_010
01011111001110000000000000000000000000000000000000_0010000_1_0000_000
01101001111110000000000000000000000000000000000000_0010000_1_0010_011
10000000000000000000000000000000000000000000000000_0000001_1_0000_000
10000000000000000000000000000000000000000000000000_0000001_1_0000_000
10010000000000000000000000000000000000000000000000_0000100_1_0000_000
00000000000000000000000000000000000000000000000000_0000000_1_0000_000
00000000000000000000000000000000000000000000000000_0000000_1_0000_000
00000000000000000000000000000000000000000000000000_0000000_1_0000_000
00000000000000000000000000000000000000000000000000_0000000_1_0000_000
00000000000000000000000000000000000000000000000000_0000000_1_0000_000
00000000000000000000000000000000000000000000000000_0000000_1_0000_000
00000000000000000000000000000000000000000000000000_0000000_1_0000_000
00000000000000000000000000000000000000000000000000_0000000_1_0000_000
10000000000000000000000000000000000000000000000000_0000001_1_0000_000
00001000000000000000000000000000000000000000000000_0000101_1_1000_001
01011010101000000000000000000000000000000000000000_0001011_1_1100_010
01100101110010001110000000000000000000000000000000_0010011_1_0000_000
10000000000000000000000000000000000000000000000000_0000001_1_0000_000
10000000000000000000000000000000000000000000000000_0000001_1_0000_000
10000000000000000000000000000000000000000000000000_0000001_1_0000_000
01011011110000000000000000000000000000000000000000_0001011_1_0000_000
00000000000000000000000000000000000000000000000000_0000000_1_0000_000
00000000000000000000000000000000000000000000000000_0000000_1_0000_000
00000000000000000000000000000000000000000000000000_0000000_1_0000_000
00000000000000000000000000000000000000000000000000_0000000_1_0000_000
01100001000110000000000000000000000000000000000000_0010000_1_0100_010
01010100110000000000000000000000000000000000000000_0001010_1_0000_010
10000000000000000000000000000000000000000000000000_0000001_1_0000_000
01000010101000000000000000000000000000000000000000_0001101_1_0000_000
00110000000000000000000000000000000000000000000000_0000111_1_0100_010
00011000000000000000000000000000000000000000000000_0000101_1_0000_001
10000000000000000000000000000000000000000000000000_0000001_1_0000_000
10100000000000000000000000000000000000000000000000_0000100_1_0000_000
01001001000000000000000000000000000000000000000000_0001001_1_1110_011
10000000000000000000000000000000000000000000000000_0000001_1_0000_000
10000000000000000000000000000000000000000000000000_0000001_1_0000_000
11110000000000000000000000000000000000000000000000_0000100_1_0000_000
00010000000000000000000000000000000000000000000000_0000101_1_1000_001
00110010000000000000000000000000000000000000000000_0010001_1_1100_010
00101000000000000000000000000000000000000000000000_0010000_1_0000_010
01100000000010100000000000111000000000000000000000_0011111_1_0000_000
00000000000000000000000000000000000000000000000000_0000000_1_0000_000
00000000000000000000000000000000000000000000000000_0001010_1_0000_000
00000000000000000000000000000000000000000000000000_0001010_1_0000_000
00000000000000000000000000000000000000000000000000_0001010_1_0000_000
00000000000000000000000000000000000000000000000000_0000000_1_0000_000
00000000000000000000000000000000000000000000000000_0001010_1_0000_000
00000000000000000000000000000000000000000000000000_0001010_1_0000_000
00000000000000000000000000000000000000000000000000_0001010_1_0000_000
01010000010000000000000000000000000000000000000000_0001010_1_0100_100
00111100000000000000000000000000000000000000000000_0000111_1_1000_100
01000101000000000000000000000000000000000000000000_0001001_1_0100_010
01011111100101001001000010000000000000000000000000_0011001_1_0000_000
10000000000000000000000000000000000000000000000000_0000001_1_0000_000
10000000000000000000000000000000000000000000000000_0000001_1_0000_000
10000000000000000000000000000000000000000000000000_0000001_1_0000_000
00111000000000000000000000000000000000000000000000_0000111_1_0000_000
10000000000000000000000000000000000000000000000000_0000001_1_0000_000
10000000000000000000000000000000000000000000000000_0000001_1_0000_000
01001011100000000000000000000000000000000000000000_0001001_1_1110_011
11110000000000000000000000000000000000000000000000_0000100_1_0000_000
00101100000000000000000000000000000000000000000000_0000110_1_1000_010
01011001011000000000000000000000000000000000000000_0001011_1_1000_100
00101100000000000000000000000000000000000000000000_0000110_1_0100_010
01010101011010000100000000000000000000000000000000_0010010_1_0000_000
00011000000000000000000000000000000000000000000000_0000101_1_1000_001
00111100000000000000000000000000000000000000000000_0000111_1_1111_100
10000000000000000000000000000000000000000000000000_0000001_1_0000_000
00111110011111000000000000000000000000000000000000_0001110_1_0000_000
10000000000000000000000000000000000000000000000000_0000001_1_0000_000
00010000000000000000000000000000000000000000000000_0000101_1_0000_001
10000000000000000000000000000000000000000000000000_0000001_1_0000_000
10000000000000000000000000000000000000000000000000_0000010_1_0000_000
01101001110110110000000000000000000000000000000000_0010000_1_1111_100
01101100010110000000000000000000000000000000000000_0010000_1_0100_011
01001010100000000000000000000000000000000000000000_0001001_1_0110_011
00110011110100110000000000000000000000000000000000_0010000_1_0000_000
00011000000000000000000000000000000000000000000000_0000101_1_0000_001
00011000000000000000000000000000000000000000000000_0000101_1_0000_001
10000000000000000000000000000000000000000000000000_0000001_1_0000_000
10000000000000000000000000000000000000000000000000_0000011_1_0000_000
00110100000000000000000000000000000000000000000000_0000111_1_0000_011
10000000000000000000000000000000000000000000000000_0000001_1_0000_000
10000000000000000000000000000000000000000000000000_0000001_1_0000_000
10000000000000000000000000000000000000000000000000_0000100_1_0000_000
00100000000000000000000000000000000000000000000000_0000110_1_1000_010
10000000000000000000000000000000000000000000000000_0000001_1_0000_000
10000000000000000000000000000000000000000000000000_0000001_1_0000_000
11000000000000000000000000000000000000000000000000_0000011_1_0000_000
00000000000000000000000000000000000000000000000000_0000000_1_0000_000
00000000000000000000000000000000000000000000000000_0000000_1_0000_000
00000000000000000000000000000000000000000000000000_0000000_1_0000_000
00000000000000000000000000000000000000000000000000_0000000_1_0000_000
10000000000000000000000000000000000000000000000000_0000001_1_0000_000
00100000000000000000000000000000000000000000000000_0000110_1_1100_010
10000000000000000000000000000000000000000000000000_0000001_1_0000_000
11100000000000000000000000000000000000000000000000_0000011_1_0000_000
00010000000000000000000000000000000000000000000000_0000101_1_1000_001
10000000000000000000000000000000000000000000000000_0000001_1_0000_000
10000000000000000000000000000000000000000000000000_0000001_1_0000_000
11000000000000000000000000000000000000000000000000_0000010_1_0000_000
00000000000000000000000000000000000000000000000000_0000000_1_0000_000
00000000000000000000000000000000000000000000000000_0000000_1_0000_000
00000000000000000000000000000000000000000000000000_0000000_1_0000_000
00000000000000000000000000000000000000000000000000_0000000_1_0000_000
00000000000000000000000000000000000000000000000000_0000000_1_0000_000
00000000000000000000000000000000000000000000000000_0000000_1_0000_000
00000000000000000000000000000000000000000000000000_0000000_1_0000_000
00000000000000000000000000000000000000000000000000_0000000_1_0000_000
00011000000000000000000000000000000000000000000000_0000101_1_1000_001
00010000000000000000000000000000000000000000000000_0000101_1_1000_001
10000000000000000000000000000000000000000000000000_0000001_1_0000_000
11100000000000000000000000000000000000000000000000_0000011_1_0000_000
00000000000000000000000000000000000000000000000000_0000000_1_0000_000
00000000000000000000000000000000000000000000000000_0000000_1_0000_000
00000000000000000000000000000000000000000000000000_0000000_1_0000_000
00000000000000000000000000000000000000000000000000_0000000_1_0000_000
00000000000000000000000000000000000000000000000000_0000000_1_0000_000
00000000000000000000000000000000000000000000000000_0000000_1_0000_000
00000000000000000000000000000000000000000000000000_0000000_1_0000_000
00000000000000000000000000000000000000000000000000_0000000_1_0000_000
00010000000000000000000000000000000000000000000000_0000101_1_1000_001
10000000000000000000000000000000000000000000000000_0000001_1_0000_000
10000000000000000000000000000000000000000000000000_0000001_1_0000_000
11000000000000000000000000000000000000000000000000_0000010_1_0000_000
00000000000000000000000000000000000000000000000000_0000000_1_0000_000
00000000000000000000000000000000000000000000000000_0000000_1_0000_000
00000000000000000000000000000000000000000000000000_0000000_1_0000_000
00000000000000000000000000000000000000000000000000_0000000_1_0000_000
00000000000000000000000000000000000000000000000000_0000000_1_0000_000
00000000000000000000000000000000000000000000000000_0000000_1_0000_000
00000000000000000000000000000000000000000000000000_0000000_1_0000_000
00000000000000000000000000000000000000000000000000_0000000_1_0000_000
10000000000000000000000000000000000000000000000000_0000001_1_0000_000
10000000000000000000000000000000000000000000000000_0000001_1_0000_000
00100100000000000000000000000000000000000000000000_0000110_1_1100_010
11100000000000000000000000000000000000000000000000_0000011_1_0000_000
00000000000000000000000000000000000000000000000000_0000000_1_0000_000
00000000000000000000000000000000000000000000000000_0000000_1_0000_000
00000000000000000000000000000000000000000000000000_0000000_1_0000_000
00000000000000000000000000000000000000000000000000_0000000_1_0000_000
00000000000000000000000000000000000000000000000000_0000000_1_0000_000
00000000000000000000000000000000000000000000000000_0000000_1_0000_000
00000000000000000000000000000000000000000000000000_0000000_1_0000_000
00000000000000000000000000000000000000000000000000_0000000_1_0000_000
10000000000000000000000000000000000000000000000000_0000001_1_0000_000
00100100000000000000000000000000000000000000000000_0000110_1_1100_010
10000000000000000000000000000000000000000000000000_0000001_1_0000_000
11100000000000000000000000000000000000000000000000_0000011_1_0000_000
00000000000000000000000000000000000000000000000000_0000000_1_0000_000
00000000000000000000000000000000000000000000000000_0000000_1_0000_000
00000000000000000000000000000000000000000000000000_0000000_1_0000_000
00000000000000000000000000000000000000000000000000_0000000_1_0000_000
00000000000000000000000000000000000000000000000000_0000000_1_0000_000
00000000000000000000000000000000000000000000000000_0000000_1_0000_000
00000000000000000000000000000000000000000000000000_0000000_1_0000_000
00000000000000000000000000000000000000000000000000_0000000_1_0000_000
10000000000000000000000000000000000000000000000000_0000001_1_0000_000
10000000000000000000000000000000000000000000000000_0000001_1_0000_000
00100000000000000000000000000000000000000000000000_0000110_1_1100_010
11100000000000000000000000000000000000000000000000_0000011_1_0000_000
00000000000000000000000000000000000000000000000000_0000000_1_0000_000
00000000000000000000000000000000000000000000000000_0000000_1_0000_000
00000000000000000000000000000000000000000000000000_0000000_1_0000_000
00000000000000000000000000000000000000000000000000_0000000_1_0000_000
00000000000000000000000000000000000000000000000000_0000000_1_0000_000
00000000000000000000000000000000000000000000000000_0000000_1_0000_000
00000000000000000000000000000000000000000000000000_0000000_1_0000_000
00000000000000000000000000000000000000000000000000_0000000_1_0000_000
10000000000000000000000000000000000000000000000000_0000001_1_0000_000
10000000000000000000000000000000000000000000000000_0000001_1_0000_000
00100000000000000000000000000000000000000000000000_0000110_1_0000_010
10000000000000000000000000000000000000000000000000_0000011_1_0000_000
00000000000000000000000000000000000000000000000000_0000000_1_0000_000
00000000000000000000000000000000000000000000000000_0000000_1_0000_000
00000000000000000000000000000000000000000000000000_0000000_1_0000_000
00000000000000000000000000000000000000000000000000_0000000_1_0000_000
00000000000000000000000000000000000000000000000000_0000000_1_0000_000
00000000000000000000000000000000000000000000000000_0000000_1_0000_000
00000000000000000000000000000000000000000000000000_0000000_1_0000_000
00000000000000000000000000000000000000000000000000_0000000_1_0000_000
10000000000000000000000000000000000000000000000000_0000001_1_0000_000
00100000000000000000000000000000000000000000000000_0010000_1_0000_010
10000000000000000000000000000000000000000000000000_0001011_1_0000_000
10000000000000000000000000000000000000000000000000_0001101_1_0000_000
00000000000000000000000000000000000000000000000000_0000000_1_0000_000
00000000000000000000000000000000000000000000000000_0001010_1_0000_000
00000000000000000000000000000000000000000000000000_0001010_1_0000_000
00000000000000000000000000000000000000000000000000_0001010_1_0000_000
00000000000000000000000000000000000000000000000000_0000000_1_0000_000
00000000000000000000000000000000000000000000000000_0001010_1_0000_000
00000000000000000000000000000000000000000000000000_0001010_1_0000_000
00000000000000000000000000000000000000000000000000_0001010_1_0000_000
00100000000000000000000000000000000000000000000000_0000110_1_1100_010
10000000000000000000000000000000000000000000000000_0000001_1_0000_000
10000000000000000000000000000000000000000000000000_0000001_1_0000_000
11100000000000000000000000000000000000000000000000_0000011_1_0000_000
00000000000000000000000000000000000000000000000000_0000000_1_0000_000
00000000000000000000000000000000000000000000000000_0000000_1_0000_000
00000000000000000000000000000000000000000000000000_0000000_1_0000_000
00000000000000000000000000000000000000000000000000_0000000_1_0000_000
00000000000000000000000000000000000000000000000000_0000000_1_0000_000
00000000000000000000000000000000000000000000000000_0000000_1_0000_000
00000000000000000000000000000000000000000000000000_0000000_1_0000_000
00000000000000000000000000000000000000000000000000_0000000_1_0000_000
00100000000000000000000000000000000000000000000000_0000110_1_1100_010
10000000000000000000000000000000000000000000000000_0001011_1_0000_000
10000000000000000000000000000000000000000000000000_0001011_1_0000_000
10000000000110000000000000000000000000000000000000_0001101_1_0000_000
00000000000000000000000000000000000000000000000000_0000000_1_0000_000
00000000000000000000000000000000000000000000000000_0001010_1_0000_000
00000000000000000000000000000000000000000000000000_0001010_1_0000_000
00000000000000000000000000000000000000000000000000_0001010_1_0000_000
00000000000000000000000000000000000000000000000000_0000000_1_0000_000
00000000000000000000000000000000000000000000000000_0001010_1_0000_000
00000000000000000000000000000000000000000000000000_0001010_1_0000_000
00000000000000000000000000000000000000000000000000_0001010_1_0000_000
10000000000000000000000000000000000000000000000000_0000001_1_0000_000
10000000000000000000000000000000000000000000000000_0001011_1_0000_000
10000000000000000000000000000000000000000000000000_0001011_1_0000_000
10000000000000000000000000000000000000000000000000_0001011_1_0000_000
00000000000000000000000000000000000000000000000000_0000000_1_0000_000
00000000000000000000000000000000000000000000000000_0001010_1_0000_000
00000000000000000000000000000000000000000000000000_0001010_1_0000_000
00000000000000000000000000000000000000000000000000_0001010_1_0000_000
00000000000000000000000000000000000000000000000000_0000000_1_0000_000
00000000000000000000000000000000000000000000000000_0001010_1_0000_000
00000000000000000000000000000000000000000000000000_0001010_1_0000_000
00000000000000000000000000000000000000000000000000_0001010_1_0000_000
10000000000000000000000000000000000000000000000000_0000001_1_0000_000
10000000000000000000000000000000000000000000000000_0001011_1_0000_000
10000000000000000000000000000000000000000000000000_0001011_1_0000_000
10000000000000000000000000000000000000000000000000_0001011_1_0000_000
00000000000000000000000000000000000000000000000000_0000000_1_0000_000
00000000000000000000000000000000000000000000000000_0001010_1_0000_000
00000000000000000000000000000000000000000000000000_0001010_1_0000_000
00000000000000000000000000000000000000000000000000_0001010_1_0000_000
00000000000000000000000000000000000000000000000000_0000000_1_0000_000
00000000000000000000000000000000000000000000000000_0001010_1_0000_000
00000000000000000000000000000000000000000000000000_0001010_1_0000_000
00000000000000000000000000000000000000000000000000_0001010_1_0000_000
10000000000000000000000000000000000000000000000000_0000001_1_0000_000
10000000000000000000000000000000000000000000000000_0001011_1_0000_000
10000000000000000000000000000000000000000000000000_0001011_1_0000_000
10000000000000000000000000000000000000000000000000_0001011_1_0000_000
00000000000000000000000000000000000000000000000000_0000000_1_0000_000
00000000000000000000000000000000000000000000000000_0001010_1_0000_000
00000000000000000000000000000000000000000000000000_0001010_1_0000_000
00000000000000000000000000000000000000000000000000_0001010_1_0000_000
00000000000000000000000000000000000000000000000000_0000000_1_0000_000
00000000000000000000000000000000000000000000000000_0001010_1_0000_000
00000000000000000000000000000000000000000000000000_0001010_1_0000_000
00000000000000000000000000000000000000000000000000_0001010_1_0000_000
10000000000000000000000000000000000000000000000000_0000001_1_0000_000
10000000000000000000000000000000000000000000000000_0001011_1_0000_000
10000000000000000000000000000000000000000000000000_0001011_1_0000_000
10000000000000000000000000000000000000000000000000_0001011_1_0000_000
00000000000000000000000000000000000000000000000000_0000000_1_0000_000
00000000000000000000000000000000000000000000000000_0001010_1_0000_000
00000000000000000000000000000000000000000000000000_0001010_1_0000_000
00000000000000000000000000000000000000000000000000_0001010_1_0000_000
00000000000000000000000000000000000000000000000000_0000000_1_0000_000
00000000000000000000000000000000000000000000000000_0001010_1_0000_000
00000000000000000000000000000000000000000000000000_0001010_1_0000_000
00000000000000000000000000000000000000000000000000_0001010_1_0000_000
10000000000000000000000000000000000000000000000000_0000001_1_0000_000
10000000000000000000000000000000000000000000000000_0001011_1_0000_000
10000000000000000000000000000000000000000000000000_0001011_1_0000_000
10000000000000000000000000000000000000000000000000_0001011_1_0000_000
00000000000000000000000000000000000000000000000000_0000000_1_0000_000
00000000000000000000000000000000000000000000000000_0001010_1_0000_000
00000000000000000000000000000000000000000000000000_0001010_1_0000_000
00000000000000000000000000000000000000000000000000_0001010_1_0000_000
00000000000000000000000000000000000000000000000000_0000000_1_0000_000
00000000000000000000000000000000000000000000000000_0001010_1_0000_000
00000000000000000000000000000000000000000000000000_0001010_1_0000_000
00000000000000000000000000000000000000000000000000_0001010_1_0000_000
10000000000000000000000000000000000000000000000000_0000001_1_0000_000
10000000000000000000000000000000000000000000000000_0001011_1_0000_000
10000000000000000000000000000000000000000000000000_0001011_1_0000_000
10000000000000000000000000000000000000000000000000_0001011_1_0000_000
00000000000000000000000000000000000000000000000000_0000000_1_0000_000
00000000000000000000000000000000000000000000000000_0001010_1_0000_000
00000000000000000000000000000000000000000000000000_0001010_1_0000_000
00000000000000000000000000000000000000000000000000_0001010_1_0000_000
00000000000000000000000000000000000000000000000000_0000000_1_0000_000
00000000000000000000000000000000000000000000000000_0001010_1_0000_000
00000000000000000000000000000000000000000000000000_0001010_1_0000_000
00000000000000000000000000000000000000000000000000_0001010_1_0000_000
10000000000000000000000000000000000000000000000000_0000001_1_0000_000
10000000000000000000000000000000000000000000000000_0001011_1_0000_000
10000000000000000000000000000000000000000000000000_0001011_1_0000_000
10000000000000000000000000000000000000000000000000_0001011_1_0000_000
00000000000000000000000000000000000000000000000000_0000000_1_0000_000
00000000000000000000000000000000000000000000000000_0001010_1_0000_000
00000000000000000000000000000000000000000000000000_0001010_1_0000_000
00000000000000000000000000000000000000000000000000_0001010_1_0000_000
00000000000000000000000000000000000000000000000000_0000000_1_0000_000
00000000000000000000000000000000000000000000000000_0001010_1_0000_000
00000000000000000000000000000000000000000000000000_0001010_1_0000_000
00000000000000000000000000000000000000000000000000_0001010_1_0000_000
10000000000000000000000000000000000000000000000000_0000001_1_0000_000
10000000000000000000000000000000000000000000000000_0001011_1_0000_000
10000000000000000000000000000000000000000000000000_0001011_1_0000_000
10000000000000000000000000000000000000000000000000_0001011_1_0000_000
00000000000000000000000000000000000000000000000000_0000000_1_0000_000
00000000000000000000000000000000000000000000000000_0001010_1_0000_000
00000000000000000000000000000000000000000000000000_0001010_1_0000_000
00000000000000000000000000000000000000000000000000_0001010_1_0000_000
00000000000000000000000000000000000000000000000000_0000000_1_0000_000
00000000000000000000000000000000000000000000000000_0001010_1_0000_000
00000000000000000000000000000000000000000000000000_0001010_1_0000_000
00000000000000000000000000000000000000000000000000_0001010_1_0000_000
10000000000000000000000000000000000000000000000000_0000001_1_0000_000
10000000000000000000000000000000000000000000000000_0001011_1_0000_000
10000000000000000000000000000000000000000000000000_0001011_1_0000_000
10000000000000000000000000000000000000000000000000_0001011_1_0000_000
00000000000000000000000000000000000000000000000000_0000000_1_0000_000
00000000000000000000000000000000000000000000000000_0001010_1_0000_000
00000000000000000000000000000000000000000000000000_0001010_1_0000_000
00000000000000000000000000000000000000000000000000_0001010_1_0000_000
00000000000000000000000000000000000000000000000000_0000000_1_0000_000
00000000000000000000000000000000000000000000000000_0001010_1_0000_000
00000000000000000000000000000000000000000000000000_0001010_1_0000_000
00000000000000000000000000000000000000000000000000_0001010_1_0000_000
10000000000000000000000000000000000000000000000000_0000001_1_0000_000
10000000000000000000000000000000000000000000000000_0001011_1_0000_000
10000000000000000000000000000000000000000000000000_0001011_1_0000_000
10000000000000000000000000000000000000000000000000_0001011_1_0000_000
00000000000000000000000000000000000000000000000000_0000000_1_0000_000
00000000000000000000000000000000000000000000000000_0001010_1_0000_000
00000000000000000000000000000000000000000000000000_0001010_1_0000_000
00000000000000000000000000000000000000000000000000_0001010_1_0000_000
00000000000000000000000000000000000000000000000000_0000000_1_0000_000
00000000000000000000000000000000000000000000000000_0001010_1_0000_000
00000000000000000000000000000000000000000000000000_0001010_1_0000_000
00000000000000000000000000000000000000000000000000_0001010_1_0000_000
10000000000000000000000000000000000000000000000000_0000001_1_0000_000
10000000000000000000000000000000000000000000000000_0001011_1_0000_000
10000000000000000000000000000000000000000000000000_0001011_1_0000_000
10000000000000000000000000000000000000000000000000_0001011_1_0000_000
00000000000000000000000000000000000000000000000000_0000000_1_0000_000
00000000000000000000000000000000000000000000000000_0001010_1_0000_000
00000000000000000000000000000000000000000000000000_0001010_1_0000_000
00000000000000000000000000000000000000000000000000_0001010_1_0000_000
00000000000000000000000000000000000000000000000000_0000000_1_0000_000
00000000000000000000000000000000000000000000000000_0001010_1_0000_000
00000000000000000000000000000000000000000000000000_0001010_1_0000_000
00000000000000000000000000000000000000000000000000_0001010_1_0000_000
10000000000000000000000000000000000000000000000000_0000001_1_0000_000
10000000000000000000000000000000000000000000000000_0001011_1_0000_000
10000000000000000000000000000000000000000000000000_0001011_1_0000_000
10000000000000000000000000000000000000000000000000_0001011_1_0000_000
00000000000000000000000000000000000000000000000000_0000000_1_0000_000
00000000000000000000000000000000000000000000000000_0001010_1_0000_000
00000000000000000000000000000000000000000000000000_0001010_1_0000_000
00000000000000000000000000000000000000000000000000_0001010_1_0000_000
00000000000000000000000000000000000000000000000000_0000000_1_0000_000
00000000000000000000000000000000000000000000000000_0001010_1_0000_000
00000000000000000000000000000000000000000000000000_0001010_1_0000_000
00000000000000000000000000000000000000000000000000_0001010_1_0000_000
10000000000000000000000000000000000000000000000000_0000001_1_0000_000
10000000000000000000000000000000000000000000000000_0001011_1_0000_000
10000000000000000000000000000000000000000000000000_0001011_1_0000_000
10000000000000000000000000000000000000000000000000_0001011_1_0000_000
00000000000000000000000000000000000000000000000000_0000000_1_0000_000
00000000000000000000000000000000000000000000000000_0001010_1_0000_000
00000000000000000000000000000000000000000000000000_0001010_1_0000_000
00000000000000000000000000000000000000000000000000_0001010_1_0000_000
00000000000000000000000000000000000000000000000000_0000000_1_0000_000
00000000000000000000000000000000000000000000000000_0001010_1_0000_000
00000000000000000000000000000000000000000000000000_0001010_1_0000_000
00000000000000000000000000000000000000000000000000_0001010_1_0000_000
10000000000000000000000000000000000000000000000000_0000001_1_0000_000
10000000000000000000000000000000000000000000000000_0001011_1_0000_000
10000000000000000000000000000000000000000000000000_0001011_1_0000_000
10000000000000000000000000000000000000000000000000_0001011_1_0000_000
00000000000000000000000000000000000000000000000000_0000000_1_0000_000
00000000000000000000000000000000000000000000000000_0001010_1_0000_000
00000000000000000000000000000000000000000000000000_0001010_1_0000_000
00000000000000000000000000000000000000000000000000_0001010_1_0000_000
00000000000000000000000000000000000000000000000000_0000000_1_0000_000
00000000000000000000000000000000000000000000000000_0001010_1_0000_000
00000000000000000000000000000000000000000000000000_0001010_1_0000_000
00000000000000000000000000000000000000000000000000_0001010_1_0000_000
10000000000000000000000000000000000000000000000000_0000001_1_0000_000
10000000000000000000000000000000000000000000000000_0001011_1_0000_000
10000000000000000000000000000000000000000000000000_0001011_1_0000_000
10000000000000000000000000000000000000000000000000_0001011_1_0000_000
00000000000000000000000000000000000000000000000000_0000000_1_0000_000
00000000000000000000000000000000000000000000000000_0001010_1_0000_000
00000000000000000000000000000000000000000000000000_0001010_1_0000_000
00000000000000000000000000000000000000000000000000_0001010_1_0000_000
00000000000000000000000000000000000000000000000000_0000000_1_0000_000
00000000000000000000000000000000000000000000000000_0001010_1_0000_000
00000000000000000000000000000000000000000000000000_0001010_1_0000_000
00000000000000000000000000000000000000000000000000_0001010_1_0000_000
10000000000000000000000000000000000000000000000000_0000001_1_0000_000
10000000000000000000000000000000000000000000000000_0001011_1_0000_000
10000000000000000000000000000000000000000000000000_0001011_1_0000_000
10000000000000000000000000000000000000000000000000_0001011_1_0000_000
00000000000000000000000000000000000000000000000000_0000000_1_0000_000
00000000000000000000000000000000000000000000000000_0001010_1_0000_000
00000000000000000000000000000000000000000000000000_0001010_1_0000_000
00000000000000000000000000000000000000000000000000_0001010_1_0000_000
00000000000000000000000000000000000000000000000000_0000000_1_0000_000
00000000000000000000000000000000000000000000000000_0001010_1_0000_000
00000000000000000000000000000000000000000000000000_0001010_1_0000_000
00000000000000000000000000000000000000000000000000_0001010_1_0000_000
10000000000000000000000000000000000000000000000000_0000001_1_0000_000
10000000000000000000000000000000000000000000000000_0001011_1_0000_000
10000000000000000000000000000000000000000000000000_0001011_1_0000_000
10000000000000000000000000000000000000000000000000_0001011_1_0000_000
00000000000000000000000000000000000000000000000000_0000000_1_0000_000
00000000000000000000000000000000000000000000000000_0001010_1_0000_000
00000000000000000000000000000000000000000000000000_0001010_1_0000_000
00000000000000000000000000000000000000000000000000_0001010_1_0000_000
00000000000000000000000000000000000000000000000000_0000000_1_0000_000
00000000000000000000000000000000000000000000000000_0001010_1_0000_000
00000000000000000000000000000000000000000000000000_0001010_1_0000_000
00000000000000000000000000000000000000000000000000_0001010_1_0000_000
10000000000000000000000000000000000000000000000000_0000001_1_0000_000
10000000000000000000000000000000000000000000000000_0001011_1_0000_000
10000000000000000000000000000000000000000000000000_0001011_1_0000_000
10000000000000000000000000000000000000000000000000_0001011_1_0000_000
00000000000000000000000000000000000000000000000000_0000000_1_0000_000
00000000000000000000000000000000000000000000000000_0001010_1_0000_000
00000000000000000000000000000000000000000000000000_0001010_1_0000_000
00000000000000000000000000000000000000000000000000_0001010_1_0000_000
00000000000000000000000000000000000000000000000000_0000000_1_0000_000
00000000000000000000000000000000000000000000000000_0001010_1_0000_000
00000000000000000000000000000000000000000000000000_0001010_1_0000_000
00000000000000000000000000000000000000000000000000_0001010_1_0000_000
10000000000000000000000000000000000000000000000000_0000001_1_0000_000
10000000000000000000000000000000000000000000000000_0001011_1_0000_000
10000000000000000000000000000000000000000000000000_0001011_1_0000_000
10000000000000000000000000000000000000000000000000_0001011_1_0000_000
00000000000000000000000000000000000000000000000000_0000000_1_0000_000
00000000000000000000000000000000000000000000000000_0001010_1_0000_000
00000000000000000000000000000000000000000000000000_0001010_1_0000_000
00000000000000000000000000000000000000000000000000_0001010_1_0000_000
00000000000000000000000000000000000000000000000000_0000000_1_0000_000
00000000000000000000000000000000000000000000000000_0001010_1_0000_000
00000000000000000000000000000000000000000000000000_0001010_1_0000_000
00000000000000000000000000000000000000000000000000_0001010_1_0000_000
10000000000000000000000000000000000000000000000000_0000001_1_0000_000
10000000000000000000000000000000000000000000000000_0001011_1_0000_000
10000000000000000000000000000000000000000000000000_0001011_1_0000_000
10000000000000000000000000000000000000000000000000_0001011_1_0000_000
00000000000000000000000000000000000000000000000000_0000000_1_0000_000
00000000000000000000000000000000000000000000000000_0001010_1_0000_000
00000000000000000000000000000000000000000000000000_0001010_1_0000_000
00000000000000000000000000000000000000000000000000_0001010_1_0000_000
00000000000000000000000000000000000000000000000000_0000000_1_0000_000
00000000000000000000000000000000000000000000000000_0001010_1_0000_000
00000000000000000000000000000000000000000000000000_0001010_1_0000_000
00000000000000000000000000000000000000000000000000_0001010_1_0000_000
10000000000000000000000000000000000000000000000000_0000001_1_0000_000
10000000000000000000000000000000000000000000000000_0001011_1_0000_000
10000000000000000000000000000000000000000000000000_0001011_1_0000_000
10000000000000000000000000000000000000000000000000_0001011_1_0000_000
00000000000000000000000000000000000000000000000000_0000000_1_0000_000
00000000000000000000000000000000000000000000000000_0001010_1_0000_000
00000000000000000000000000000000000000000000000000_0001010_1_0000_000
00000000000000000000000000000000000000000000000000_0001010_1_0000_000
00000000000000000000000000000000000000000000000000_0000000_1_0000_000
00000000000000000000000000000000000000000000000000_0001010_1_0000_000
00000000000000000000000000000000000000000000000000_0001010_1_0000_000
00000000000000000000000000000000000000000000000000_0001010_1_0000_000
10000000000000000000000000000000000000000000000000_0000001_1_0000_000
10000000000000000000000000000000000000000000000000_0001011_1_0000_000
10000000000000000000000000000000000000000000000000_0001011_1_0000_000
10000000000000000000000000000000000000000000000000_0001011_1_0000_000
00000000000000000000000000000000000000000000000000_0000000_1_0000_000
00000000000000000000000000000000000000000000000000_0001010_1_0000_000
00000000000000000000000000000000000000000000000000_0001010_1_0000_000
00000000000000000000000000000000000000000000000000_0001010_1_0000_000
00000000000000000000000000000000000000000000000000_0000000_1_0000_000
00000000000000000000000000000000000000000000000000_0001010_1_0000_000
00000000000000000000000000000000000000000000000000_0001010_1_0000_000
00000000000000000000000000000000000000000000000000_0001010_1_0000_000
10000000000000000000000000000000000000000000000000_0000001_1_0000_000
10000000000000000000000000000000000000000000000000_0001011_1_0000_000
10000000000000000000000000000000000000000000000000_0001011_1_0000_000
10000000000000000000000000000000000000000000000000_0001011_1_0000_000
00000000000000000000000000000000000000000000000000_0000000_1_0000_000
00000000000000000000000000000000000000000000000000_0001010_1_0000_000
00000000000000000000000000000000000000000000000000_0001010_1_0000_000
00000000000000000000000000000000000000000000000000_0001010_1_0000_000
00000000000000000000000000000000000000000000000000_0000000_1_0000_000
00000000000000000000000000000000000000000000000000_0001010_1_0000_000
00000000000000000000000000000000000000000000000000_0001010_1_0000_000
00000000000000000000000000000000000000000000000000_0001010_1_0000_000
10000000000000000000000000000000000000000000000000_0000001_1_0000_000
10000000000000000000000000000000000000000000000000_0001011_1_0000_000
10000000000000000000000000000000000000000000000000_0001011_1_0000_000
10000000000000000000000000000000000000000000000000_0001011_1_0000_000
00000000000000000000000000000000000000000000000000_0000000_1_0000_000
00000000000000000000000000000000000000000000000000_0001010_1_0000_000
00000000000000000000000000000000000000000000000000_0001010_1_0000_000
00000000000000000000000000000000000000000000000000_0001010_1_0000_000
00000000000000000000000000000000000000000000000000_0000000_1_0000_000
00000000000000000000000000000000000000000000000000_0001010_1_0000_000
00000000000000000000000000000000000000000000000000_0001010_1_0000_000
00000000000000000000000000000000000000000000000000_0001010_1_0000_000
10000000000000000000000000000000000000000000000000_0000001_1_0000_000
10000000000000000000000000000000000000000000000000_0001011_1_0000_000
10000000000000000000000000000000000000000000000000_0001011_1_0000_000
10000000000000000000000000000000000000000000000000_0001011_1_0000_000
00000000000000000000000000000000000000000000000000_0000000_1_0000_000
00000000000000000000000000000000000000000000000000_0001010_1_0000_000
00000000000000000000000000000000000000000000000000_0001010_1_0000_000
00000000000000000000000000000000000000000000000000_0001010_1_0000_000
00000000000000000000000000000000000000000000000000_0000000_1_0000_000
00000000000000000000000000000000000000000000000000_0001010_1_0000_000
00000000000000000000000000000000000000000000000000_0001010_1_0000_000
00000000000000000000000000000000000000000000000000_0001010_1_0000_000
10000000000000000000000000000000000000000000000000_0000001_1_0000_000
10000000000000000000000000000000000000000000000000_0001011_1_0000_000
10000000000000000000000000000000000000000000000000_0001011_1_0000_000
10000000000000000000000000000000000000000000000000_0001011_1_0000_000
00000000000000000000000000000000000000000000000000_0000000_1_0000_000
00000000000000000000000000000000000000000000000000_0001010_1_0000_000
00000000000000000000000000000000000000000000000000_0001010_1_0000_000
00000000000000000000000000000000000000000000000000_0001010_1_0000_000
00000000000000000000000000000000000000000000000000_0000000_1_0000_000
00000000000000000000000000000000000000000000000000_0001010_1_0000_000
00000000000000000000000000000000000000000000000000_0001010_1_0000_000
00000000000000000000000000000000000000000000000000_0001010_1_0000_000
10000000000000000000000000000000000000000000000000_0000001_1_0000_000
10000000000000000000000000000000000000000000000000_0001011_1_0000_000
10000000000000000000000000000000000000000000000000_0001011_1_0000_000
10000000000000000000000000000000000000000000000000_0001011_1_0000_000
00000000000000000000000000000000000000000000000000_0000000_1_0000_000
00000000000000000000000000000000000000000000000000_0001010_1_0000_000
00000000000000000000000000000000000000000000000000_0001010_1_0000_000
00000000000000000000000000000000000000000000000000_0001010_1_0000_000
00000000000000000000000000000000000000000000000000_0000000_1_0000_000
00000000000000000000000000000000000000000000000000_0001010_1_0000_000
00000000000000000000000000000000000000000000000000_0001010_1_0000_000
00000000000000000000000000000000000000000000000000_0001010_1_0000_000
10000000000000000000000000000000000000000000000000_0000001_1_0000_000
10000000000000000000000000000000000000000000000000_0001011_1_0000_000
10000000000000000000000000000000000000000000000000_0001011_1_0000_000
10000000000000000000000000000000000000000000000000_0001011_1_0000_000
00000000000000000000000000000000000000000000000000_0000000_1_0000_000
00000000000000000000000000000000000000000000000000_0001010_1_0000_000
00000000000000000000000000000000000000000000000000_0001010_1_0000_000
00000000000000000000000000000000000000000000000000_0001010_1_0000_000
00000000000000000000000000000000000000000000000000_0000000_1_0000_000
00000000000000000000000000000000000000000000000000_0001010_1_0000_000
00000000000000000000000000000000000000000000000000_0001010_1_0000_000
00000000000000000000000000000000000000000000000000_0001010_1_0000_000
10000000000000000000000000000000000000000000000000_0000001_1_0000_000
10000000000000000000000000000000000000000000000000_0001011_1_0000_000
10000000000000000000000000000000000000000000000000_0001011_1_0000_000
10000000000000000000000000000000000000000000000000_0001011_1_0000_000
00000000000000000000000000000000000000000000000000_0000000_1_0000_000
00000000000000000000000000000000000000000000000000_0001010_1_0000_000
00000000000000000000000000000000000000000000000000_0001010_1_0000_000
00000000000000000000000000000000000000000000000000_0001010_1_0000_000
00000000000000000000000000000000000000000000000000_0000000_1_0000_000
00000000000000000000000000000000000000000000000000_0001010_1_0000_000
00000000000000000000000000000000000000000000000000_0001010_1_0000_000
00000000000000000000000000000000000000000000000000_0001010_1_0000_000
10000000000000000000000000000000000000000000000000_0000001_1_0000_000
10000000000000000000000000000000000000000000000000_0001011_1_0000_000
10000000000000000000000000000000000000000000000000_0001011_1_0000_000
10000000000000000000000000000000000000000000000000_0001011_1_0000_000
00000000000000000000000000000000000000000000000000_0000000_1_0000_000
00000000000000000000000000000000000000000000000000_0001010_1_0000_000
00000000000000000000000000000000000000000000000000_0001010_1_0000_000
00000000000000000000000000000000000000000000000000_0001010_1_0000_000
00000000000000000000000000000000000000000000000000_0000000_1_0000_000
00000000000000000000000000000000000000000000000000_0001010_1_0000_000
00000000000000000000000000000000000000000000000000_0001010_1_0000_000
00000000000000000000000000000000000000000000000000_0001010_1_0000_000
10000000000000000000000000000000000000000000000000_0000001_1_0000_000
10000000000000000000000000000000000000000000000000_0001011_1_0000_000
10000000000000000000000000000000000000000000000000_0001011_1_0000_000
10000000000000000000000000000000000000000000000000_0001011_1_0000_000
00000000000000000000000000000000000000000000000000_0000000_1_0000_000
00000000000000000000000000000000000000000000000000_0001010_1_0000_000
00000000000000000000000000000000000000000000000000_0001010_1_0000_000
00000000000000000000000000000000000000000000000000_0001010_1_0000_000
00000000000000000000000000000000000000000000000000_0000000_1_0000_000
00000000000000000000000000000000000000000000000000_0001010_1_0000_000
00000000000000000000000000000000000000000000000000_0001010_1_0000_000
00000000000000000000000000000000000000000000000000_0001010_1_0000_000
10000000000000000000000000000000000000000000000000_0000001_1_0000_000
10000000000000000000000000000000000000000000000000_0001011_1_0000_000
10000000000000000000000000000000000000000000000000_0001011_1_0000_000
10000000000000000000000000000000000000000000000000_0001011_1_0000_000
00000000000000000000000000000000000000000000000000_0000000_1_0000_000
00000000000000000000000000000000000000000000000000_0001010_1_0000_000
00000000000000000000000000000000000000000000000000_0001010_1_0000_000
00000000000000000000000000000000000000000000000000_0001010_1_0000_000
00000000000000000000000000000000000000000000000000_0000000_1_0000_000
00000000000000000000000000000000000000000000000000_0001010_1_0000_000
00000000000000000000000000000000000000000000000000_0001010_1_0000_000
00000000000000000000000000000000000000000000000000_0001010_1_0000_000
10000000000000000000000000000000000000000000000000_0000001_1_0000_000
10000000000000000000000000000000000000000000000000_0001011_1_0000_000
10000000000000000000000000000000000000000000000000_0001011_1_0000_000
10000000000000000000000000000000000000000000000000_0001011_1_0000_000
00000000000000000000000000000000000000000000000000_0000000_1_0000_000
00000000000000000000000000000000000000000000000000_0001010_1_0000_000
00000000000000000000000000000000000000000000000000_0001010_1_0000_000
00000000000000000000000000000000000000000000000000_0001010_1_0000_000
00000000000000000000000000000000000000000000000000_0000000_1_0000_000
00000000000000000000000000000000000000000000000000_0001010_1_0000_000
00000000000000000000000000000000000000000000000000_0001010_1_0000_000
00000000000000000000000000000000000000000000000000_0001010_1_0000_000
10000000000000000000000000000000000000000000000000_0000001_1_0000_000
10000000000000000000000000000000000000000000000000_0001011_1_0000_000
10000000000000000000000000000000000000000000000000_0001011_1_0000_000
10000000000000000000000000000000000000000000000000_0001011_1_0000_000
00000000000000000000000000000000000000000000000000_0000000_1_0000_000
00000000000000000000000000000000000000000000000000_0001010_1_0000_000
00000000000000000000000000000000000000000000000000_0001010_1_0000_000
00000000000000000000000000000000000000000000000000_0001010_1_0000_000
00000000000000000000000000000000000000000000000000_0000000_1_0000_000
00000000000000000000000000000000000000000000000000_0001010_1_0000_000
00000000000000000000000000000000000000000000000000_0001010_1_0000_000
00000000000000000000000000000000000000000000000000_0001010_1_0000_000
10000000000000000000000000000000000000000000000000_0000001_1_0000_000
10000000000000000000000000000000000000000000000000_0001011_1_0000_000
10000000000000000000000000000000000000000000000000_0001011_1_0000_000
10000000000000000000000000000000000000000000000000_0001011_1_0000_000
00000000000000000000000000000000000000000000000000_0000000_1_0000_000
00000000000000000000000000000000000000000000000000_0001010_1_0000_000
00000000000000000000000000000000000000000000000000_0001010_1_0000_000
00000000000000000000000000000000000000000000000000_0001010_1_0000_000
00000000000000000000000000000000000000000000000000_0000000_1_0000_000
00000000000000000000000000000000000000000000000000_0001010_1_0000_000
00000000000000000000000000000000000000000000000000_0001010_1_0000_000
00000000000000000000000000000000000000000000000000_0001010_1_0000_000
10000000000000000000000000000000000000000000000000_0000001_1_0000_000
10000000000000000000000000000000000000000000000000_0001011_1_0000_000
10000000000000000000000000000000000000000000000000_0001011_1_0000_000
10000000000000000000000000000000000000000000000000_0001011_1_0000_000
00000000000000000000000000000000000000000000000000_0000000_1_0000_000
00000000000000000000000000000000000000000000000000_0001010_1_0000_000
00000000000000000000000000000000000000000000000000_0001010_1_0000_000
00000000000000000000000000000000000000000000000000_0001010_1_0000_000
00000000000000000000000000000000000000000000000000_0000000_1_0000_000
00000000000000000000000000000000000000000000000000_0001010_1_0000_000
00000000000000000000000000000000000000000000000000_0001010_1_0000_000
00000000000000000000000000000000000000000000000000_0001010_1_0000_000
10000000000000000000000000000000000000000000000000_0000001_1_0000_000
10000000000000000000000000000000000000000000000000_0001011_1_0000_000
10000000000000000000000000000000000000000000000000_0001011_1_0000_000
10000000000000000000000000000000000000000000000000_0001011_1_0000_000
00000000000000000000000000000000000000000000000000_0000000_1_0000_000
00000000000000000000000000000000000000000000000000_0001010_1_0000_000
00000000000000000000000000000000000000000000000000_0001010_1_0000_000
00000000000000000000000000000000000000000000000000_0001010_1_0000_000
00000000000000000000000000000000000000000000000000_0000000_1_0000_000
00000000000000000000000000000000000000000000000000_0001010_1_0000_000
00000000000000000000000000000000000000000000000000_0001010_1_0000_000
00000000000000000000000000000000000000000000000000_0001010_1_0000_000
10000000000000000000000000000000000000000000000000_0000001_1_0000_000
10000000000000000000000000000000000000000000000000_0001011_1_0000_000
10000000000000000000000000000000000000000000000000_0001011_1_0000_000
10000000000000000000000000000000000000000000000000_0001011_1_0000_000
00000000000000000000000000000000000000000000000000_0000000_1_0000_000
00000000000000000000000000000000000000000000000000_0001010_1_0000_000
00000000000000000000000000000000000000000000000000_0001010_1_0000_000
00000000000000000000000000000000000000000000000000_0001010_1_0000_000
00000000000000000000000000000000000000000000000000_0000000_1_0000_000
00000000000000000000000000000000000000000000000000_0001010_1_0000_000
00000000000000000000000000000000000000000000000000_0001010_1_0000_000
00000000000000000000000000000000000000000000000000_0001010_1_0000_000
10000000000000000000000000000000000000000000000000_0000001_1_0000_000
10000000000000000000000000000000000000000000000000_0001011_1_0000_000
10000000000000000000000000000000000000000000000000_0001011_1_0000_000
10000000000000000000000000000000000000000000000000_0001011_1_0000_000
00000000000000000000000000000000000000000000000000_0000000_1_0000_000
00000000000000000000000000000000000000000000000000_0001010_1_0000_000
00000000000000000000000000000000000000000000000000_0001010_1_0000_000
00000000000000000000000000000000000000000000000000_0001010_1_0000_000
00000000000000000000000000000000000000000000000000_0000000_1_0000_000
00000000000000000000000000000000000000000000000000_0001010_1_0000_000
00000000000000000000000000000000000000000000000000_0001010_1_0000_000
00000000000000000000000000000000000000000000000000_0001010_1_0000_000
10000000000000000000000000000000000000000000000000_0000001_1_0000_000
10000000000000000000000000000000000000000000000000_0001011_1_0000_000
10000000000000000000000000000000000000000000000000_0001011_1_0000_000
10000000000000000000000000000000000000000000000000_0001011_1_0000_000
00000000000000000000000000000000000000000000000000_0000000_1_0000_000
00000000000000000000000000000000000000000000000000_0001010_1_0000_000
00000000000000000000000000000000000000000000000000_0001010_1_0000_000
00000000000000000000000000000000000000000000000000_0001010_1_0000_000
00000000000000000000000000000000000000000000000000_0000000_1_0000_000
00000000000000000000000000000000000000000000000000_0001010_1_0000_000
00000000000000000000000000000000000000000000000000_0001010_1_0000_000
00000000000000000000000000000000000000000000000000_0001010_1_0000_000
10000000000000000000000000000000000000000000000000_0000001_1_0000_000
10000000000000000000000000000000000000000000000000_0001011_1_0000_000
10000000000000000000000000000000000000000000000000_0001011_1_0000_000
10000000000000000000000000000000000000000000000000_0001011_1_0000_000
00000000000000000000000000000000000000000000000000_0000000_1_0000_000
00000000000000000000000000000000000000000000000000_0001010_1_0000_000
00000000000000000000000000000000000000000000000000_0001010_1_0000_000
00000000000000000000000000000000000000000000000000_0001010_1_0000_000
00000000000000000000000000000000000000000000000000_0000000_1_0000_000
00000000000000000000000000000000000000000000000000_0001010_1_0000_000
00000000000000000000000000000000000000000000000000_0001010_1_0000_000
00000000000000000000000000000000000000000000000000_0001010_1_0000_000
10000000000000000000000000000000000000000000000000_0000001_1_0000_000
10000000000000000000000000000000000000000000000000_0001011_1_0000_000
10000000000000000000000000000000000000000000000000_0001011_1_0000_000
10000000000000000000000000000000000000000000000000_0001011_1_0000_000
00000000000000000000000000000000000000000000000000_0000000_1_0000_000
00000000000000000000000000000000000000000000000000_0001010_1_0000_000
00000000000000000000000000000000000000000000000000_0001010_1_0000_000
00000000000000000000000000000000000000000000000000_0001010_1_0000_000
00000000000000000000000000000000000000000000000000_0000000_1_0000_000
00000000000000000000000000000000000000000000000000_0001010_1_0000_000
00000000000000000000000000000000000000000000000000_0001010_1_0000_000
00000000000000000000000000000000000000000000000000_0001010_1_0000_000
10000000000000000000000000000000000000000000000000_0000001_1_0000_000
10000000000000000000000000000000000000000000000000_0001011_1_0000_000
10000000000000000000000000000000000000000000000000_0001011_1_0000_000
10000000000000000000000000000000000000000000000000_0001011_1_0000_000
00000000000000000000000000000000000000000000000000_0000000_1_0000_000
00000000000000000000000000000000000000000000000000_0001010_1_0000_000
00000000000000000000000000000000000000000000000000_0001010_1_0000_000
00000000000000000000000000000000000000000000000000_0001010_1_0000_000
00000000000000000000000000000000000000000000000000_0000000_1_0000_000
00000000000000000000000000000000000000000000000000_0001010_1_0000_000
00000000000000000000000000000000000000000000000000_0001010_1_0000_000
00000000000000000000000000000000000000000000000000_0001010_1_0000_000
10000000000000000000000000000000000000000000000000_0000001_1_0000_000
10000000000000000000000000000000000000000000000000_0001011_1_0000_000
10000000000000000000000000000000000000000000000000_0001011_1_0000_000
10000000000000000000000000000000000000000000000000_0001011_1_0000_000
00000000000000000000000000000000000000000000000000_0000000_1_0000_000
00000000000000000000000000000000000000000000000000_0001010_1_0000_000
00000000000000000000000000000000000000000000000000_0001010_1_0000_000
00000000000000000000000000000000000000000000000000_0001010_1_0000_000
00000000000000000000000000000000000000000000000000_0000000_1_0000_000
00000000000000000000000000000000000000000000000000_0001010_1_0000_000
00000000000000000000000000000000000000000000000000_0001010_1_0000_000
00000000000000000000000000000000000000000000000000_0001010_1_0000_000
10000000000000000000000000000000000000000000000000_0000001_1_0000_000
10000000000000000000000000000000000000000000000000_0001011_1_0000_000
10000000000000000000000000000000000000000000000000_0001011_1_0000_000
10000000000000000000000000000000000000000000000000_0001011_1_0000_000
00000000000000000000000000000000000000000000000000_0000000_1_0000_000
00000000000000000000000000000000000000000000000000_0001010_1_0000_000
00000000000000000000000000000000000000000000000000_0001010_1_0000_000
00000000000000000000000000000000000000000000000000_0001010_1_0000_000
00000000000000000000000000000000000000000000000000_0000000_1_0000_000
00000000000000000000000000000000000000000000000000_0001010_1_0000_000
00000000000000000000000000000000000000000000000000_0001010_1_0000_000
00000000000000000000000000000000000000000000000000_0001010_1_0000_000
10000000000000000000000000000000000000000000000000_0000001_1_0000_000
10000000000000000000000000000000000000000000000000_0001011_1_0000_000
10000000000000000000000000000000000000000000000000_0001011_1_0000_000
10000000000000000000000000000000000000000000000000_0001011_1_0000_000
00000000000000000000000000000000000000000000000000_0000000_1_0000_000
00000000000000000000000000000000000000000000000000_0001010_1_0000_000
00000000000000000000000000000000000000000000000000_0001010_1_0000_000
00000000000000000000000000000000000000000000000000_0001010_1_0000_000
00000000000000000000000000000000000000000000000000_0000000_1_0000_000
00000000000000000000000000000000000000000000000000_0001010_1_0000_000
00000000000000000000000000000000000000000000000000_0001010_1_0000_000
00000000000000000000000000000000000000000000000000_0001010_1_0000_000
10000000000000000000000000000000000000000000000000_0000001_1_0000_000
10000000000000000000000000000000000000000000000000_0001011_1_0000_000
10000000000000000000000000000000000000000000000000_0001011_1_0000_000
10000000000000000000000000000000000000000000000000_0001011_1_0000_000
00000000000000000000000000000000000000000000000000_0000000_1_0000_000
00000000000000000000000000000000000000000000000000_0001010_1_0000_000
00000000000000000000000000000000000000000000000000_0001010_1_0000_000
00000000000000000000000000000000000000000000000000_0001010_1_0000_000
00000000000000000000000000000000000000000000000000_0000000_1_0000_000
00000000000000000000000000000000000000000000000000_0001010_1_0000_000
00000000000000000000000000000000000000000000000000_0001010_1_0000_000
00000000000000000000000000000000000000000000000000_0001010_1_0000_000
10000000000000000000000000000000000000000000000000_0000001_1_0000_000
10000000000000000000000000000000000000000000000000_0001011_1_0000_000
10000000000000000000000000000000000000000000000000_0001011_1_0000_000
10000000000000000000000000000000000000000000000000_0001011_1_0000_000
00000000000000000000000000000000000000000000000000_0000000_1_0000_000
00000000000000000000000000000000000000000000000000_0001010_1_0000_000
00000000000000000000000000000000000000000000000000_0001010_1_0000_000
00000000000000000000000000000000000000000000000000_0001010_1_0000_000
00000000000000000000000000000000000000000000000000_0000000_1_0000_000
00000000000000000000000000000000000000000000000000_0001010_1_0000_000
00000000000000000000000000000000000000000000000000_0001010_1_0000_000
00000000000000000000000000000000000000000000000000_0001010_1_0000_000
10000000000000000000000000000000000000000000000000_0000001_1_0000_000
10000000000000000000000000000000000000000000000000_0001011_1_0000_000
10000000000000000000000000000000000000000000000000_0001011_1_0000_000
10000000000000000000000000000000000000000000000000_0001011_1_0000_000
00000000000000000000000000000000000000000000000000_0000000_1_0000_000
00000000000000000000000000000000000000000000000000_0001010_1_0000_000
00000000000000000000000000000000000000000000000000_0001010_1_0000_000
00000000000000000000000000000000000000000000000000_0001010_1_0000_000
00000000000000000000000000000000000000000000000000_0000000_1_0000_000
00000000000000000000000000000000000000000000000000_0001010_1_0000_000
00000000000000000000000000000000000000000000000000_0001010_1_0000_000
00000000000000000000000000000000000000000000000000_0001010_1_0000_000
10000000000000000000000000000000000000000000000000_0000001_1_0000_000
10000000000000000000000000000000000000000000000000_0001011_1_0000_000
10000000000000000000000000000000000000000000000000_0001011_1_0000_000
10000000000000000000000000000000000000000000000000_0001011_1_0000_000
00000000000000000000000000000000000000000000000000_0000000_1_0000_000
00000000000000000000000000000000000000000000000000_0001010_1_0000_000
00000000000000000000000000000000000000000000000000_0001010_1_0000_000
00000000000000000000000000000000000000000000000000_0001010_1_0000_000
00000000000000000000000000000000000000000000000000_0000000_1_0000_000
00000000000000000000000000000000000000000000000000_0001010_1_0000_000
00000000000000000000000000000000000000000000000000_0001010_1_0000_000
00000000000000000000000000000000000000000000000000_0001010_1_0000_000
10000000000000000000000000000000000000000000000000_0000001_1_0000_000
10000000000000000000000000000000000000000000000000_0001011_1_0000_000
10000000000000000000000000000000000000000000000000_0001011_1_0000_000
10000000000000000000000000000000000000000000000000_0001011_1_0000_000
00000000000000000000000000000000000000000000000000_0000000_1_0000_000
00000000000000000000000000000000000000000000000000_0001010_1_0000_000
00000000000000000000000000000000000000000000000000_0001010_1_0000_000
00000000000000000000000000000000000000000000000000_0001010_1_0000_000
00000000000000000000000000000000000000000000000000_0000000_1_0000_000
00000000000000000000000000000000000000000000000000_0001010_1_0000_000
00000000000000000000000000000000000000000000000000_0001010_1_0000_000
00000000000000000000000000000000000000000000000000_0001010_1_0000_000
10000000000000000000000000000000000000000000000000_0000001_1_0000_000
10000000000000000000000000000000000000000000000000_0001011_1_0000_000
10000000000000000000000000000000000000000000000000_0001011_1_0000_000
10000000000000000000000000000000000000000000000000_0001011_1_0000_000
00000000000000000000000000000000000000000000000000_0000000_1_0000_000
00000000000000000000000000000000000000000000000000_0001010_1_0000_000
00000000000000000000000000000000000000000000000000_0001010_1_0000_000
00000000000000000000000000000000000000000000000000_0001010_1_0000_000
00000000000000000000000000000000000000000000000000_0000000_1_0000_000
00000000000000000000000000000000000000000000000000_0001010_1_0000_000
00000000000000000000000000000000000000000000000000_0001010_1_0000_000
00000000000000000000000000000000000000000000000000_0001010_1_0000_000
10000000000000000000000000000000000000000000000000_0000001_1_0000_000
10000000000000000000000000000000000000000000000000_0001011_1_0000_000
10000000000000000000000000000000000000000000000000_0001011_1_0000_000
10000000000000000000000000000000000000000000000000_0001011_1_0000_000
00000000000000000000000000000000000000000000000000_0000000_1_0000_000
00000000000000000000000000000000000000000000000000_0001010_1_0000_000
00000000000000000000000000000000000000000000000000_0001010_1_0000_000
00000000000000000000000000000000000000000000000000_0001010_1_0000_000
00000000000000000000000000000000000000000000000000_0000000_1_0000_000
00000000000000000000000000000000000000000000000000_0001010_1_0000_000
00000000000000000000000000000000000000000000000000_0001010_1_0000_000
00000000000000000000000000000000000000000000000000_0001010_1_0000_000
10000000000000000000000000000000000000000000000000_0000001_1_0000_000
10000000000000000000000000000000000000000000000000_0001011_1_0000_000
10000000000000000000000000000000000000000000000000_0001011_1_0000_000
10000000000000000000000000000000000000000000000000_0001011_1_0000_000
00000000000000000000000000000000000000000000000000_0000000_1_0000_000
00000000000000000000000000000000000000000000000000_0001010_1_0000_000
00000000000000000000000000000000000000000000000000_0001010_1_0000_000
00000000000000000000000000000000000000000000000000_0001010_1_0000_000
00000000000000000000000000000000000000000000000000_0000000_1_0000_000
00000000000000000000000000000000000000000000000000_0001010_1_0000_000
00000000000000000000000000000000000000000000000000_0001010_1_0000_000
00000000000000000000000000000000000000000000000000_0001010_1_0000_000
10000000000000000000000000000000000000000000000000_0000001_1_0000_000
10000000000000000000000000000000000000000000000000_0001011_1_0000_000
10000000000000000000000000000000000000000000000000_0001011_1_0000_000
10000000000000000000000000000000000000000000000000_0001011_1_0000_000
00000000000000000000000000000000000000000000000000_0000000_1_0000_000
00000000000000000000000000000000000000000000000000_0001010_1_0000_000
00000000000000000000000000000000000000000000000000_0001010_1_0000_000
00000000000000000000000000000000000000000000000000_0001010_1_0000_000
00000000000000000000000000000000000000000000000000_0000000_1_0000_000
00000000000000000000000000000000000000000000000000_0001010_1_0000_000
00000000000000000000000000000000000000000000000000_0001010_1_0000_000
00000000000000000000000000000000000000000000000000_0001010_1_0000_000
10000000000000000000000000000000000000000000000000_0000001_1_0000_000
10000000000000000000000000000000000000000000000000_0001011_1_0000_000
10000000000000000000000000000000000000000000000000_0001011_1_0000_000
10000000000000000000000000000000000000000000000000_0001011_1_0000_000
00000000000000000000000000000000000000000000000000_0000000_1_0000_000
00000000000000000000000000000000000000000000000000_0001010_1_0000_000
00000000000000000000000000000000000000000000000000_0001010_1_0000_000
00000000000000000000000000000000000000000000000000_0001010_1_0000_000
00000000000000000000000000000000000000000000000000_0000000_1_0000_000
00000000000000000000000000000000000000000000000000_0001010_1_0000_000
00000000000000000000000000000000000000000000000000_0001010_1_0000_000
00000000000000000000000000000000000000000000000000_0001010_1_0000_000
