10000000000000000000000000000000000000000000000000_0000001_1_0000_000
00000000000000000000000000000000000000000000000000_0001111_1_1000_001
00110000000000000000000000000000000000000000000000_0010001_1_0100_010
10000000000101000000000000000000000000000000000000_0001110_1_0000_000
00000000000000000000000000000000000000000000000000_0000000_1_0000_000
00000000000000000000000000000000000000000000000000_0001010_1_0000_000
00000000000000000000000000000000000000000000000000_0001010_1_0000_000
00000000000000000000000000000000000000000000000000_0001010_1_0000_000
00000000000000000000000000000000000000000000000000_0000000_1_0000_000
00000000000000000000000000000000000000000000000000_0001010_1_0000_000
00000000000000000000000000000000000000000000000000_0001010_1_0000_000
00000000000000000000000000000000000000000000000000_0001010_1_0000_000
01010110000000000000000000000000000000000000000000_0001010_1_1110_011
01010001000000000000000000000000000000000000000000_0001010_1_1100_010
00100000000000000000000000000000000000000000000000_0000110_1_0000_010
00111110011111000000000000000000000000000000000000_0010000_1_0000_000
00000000000000000000000000000000000000000000000000_0000000_1_0000_000
00000000000000000000000000000000000000000000000000_0000000_1_0000_000
00000000000000000000000000000000000000000000000000_0000000_1_0000_000
00000000000000000000000000000000000000000000000000_0000000_1_0000_000
00000000000000000000000000000000000000000000000000_0000000_1_0000_000
00000000000000000000000000000000000000000000000000_0000000_1_0000_000
00000000000000000000000000000000000000000000000000_0000000_1_0000_000
00000000000000000000000000000000000000000000000000_0000000_1_0000_000
10000000000000000000000000000000000000000000000000_0000001_1_0000_000
00011000000000000000000000000000000000000000000000_0000101_1_0000_001
00101100000000000000000000000000000000000000000000_0000110_1_0100_010
00111010010000000000000000000000000000000000000000_0001010_1_0000_000
00000000000000000000000000000000000000000000000000_0000000_1_0000_000
00000000000000000000000000000000000000000000000000_0000000_1_0000_000
00000000000000000000000000000000000000000000000000_0000000_1_0000_000
00000000000000000000000000000000000000000000000000_0000000_1_0000_000
00000000000000000000000000000000000000000000000000_0000000_1_0000_000
00000000000000000000000000000000000000000000000000_0000000_1_0000_000
00000000000000000000000000000000000000000000000000_0000000_1_0000_000
00000000000000000000000000000000000000000000000000_0000000_1_0000_000
00010000000000000000000000000000000000000000000000_0000101_1_0000_001
01001000100000000000000000000000000000000000000000_0001001_1_0000_011
00001000000000000000000000000000000000000000000000_0000101_1_1000_001
01011000101000010000000000000000000000000000000000_0010000_1_0000_000
00000000000000000000000000000000000000000000000000_0000000_1_0000_000
00000000000000000000000000000000000000000000000000_0000000_1_0000_000
00000000000000000000000000000000000000000000000000_0000000_1_0000_000
00000000000000000000000000000000000000000000000000_0000000_1_0000_000
00000000000000000000000000000000000000000000000000_0000000_1_0000_000
00000000000000000000000000000000000000000000000000_0000000_1_0000_000
00000000000000000000000000000000000000000000000000_0000000_1_0000_000
00000000000000000000000000000000000000000000000000_0000000_1_0000_000
10000000000000000000000000000000000000000000000000_0000001_1_0000_000
01000010100000000000000000000000000000000000000000_0001001_1_1100_010
00110010000000000000000000000000000000000000000000_0000111_1_0100_010
00111110111010000000000000000000000000000000000000_0001101_1_0000_000
00100100000000000000000000000000000000000000000000_0000110_1_0000_010
00100100000000000000000000000000000000000000000000_0000110_1_0000_010
10000000000000000000000000000000000000000000000000_0000001_1_0000_000
10000000000000000000000000000000000000000000000000_0000101_1_0000_000
00010000000000000000000000000000000000000000000000_0000101_1_0000_001
10000000000000000000000000000000000000000000000000_0000001_1_0000_000
00100000000000000000000000000000000000000000000000_0000110_1_0000_010
10000000000000000000000000000000000000000000000000_0000100_1_0000_000
01000110100000000000000000000000000000000000000000_0001001_1_0000_010
01101000000000110000000000000000000000000000000000_0010000_1_0100_010
01011100110000000000000000000000000000000000000000_0001100_1_0010_011
01100000010100010001001000000000000000000000000000_0010111_1_0000_000
00000000000000000000000000000000000000000000000000_0000101_1_1000_001
10000000000000000000000000000000000000000000000000_0000001_1_0000_000
10000000000000000000000000000000000000000000000000_0000001_1_0000_000
00111001000000000000000000000000000000000000000000_0001000_1_0000_000
00000000000000000000000000000000000000000000000000_0000000_1_0000_000
00000000000000000000000000000000000000000000000000_0000000_1_0000_000
00000000000000000000000000000000000000000000000000_0000000_1_0000_000
00000000000000000000000000000000000000000000000000_0000000_1_0000_000
01100010101100110000000000000000000000000000000000_0010000_1_1111_100
10000000000000000000000000000000000000000000000000_0000001_1_0000_000
01101010000011100000000000000000000000000000000000_0010000_1_1000_011
01111001111011100011000000111110000000000000000000_0100001_1_0000_000
00000000000000000000000000000000000000000000000000_0000000_1_0000_000
00000000000000000000000000000000000000000000000000_0000000_1_0000_000
00000000000000000000000000000000000000000000000000_0000000_1_0000_000
00000000000000000000000000000000000000000000000000_0000000_1_0000_000
10000000000000000000000000000000000000000000000000_0000001_1_0000_000
10000000000000000000000000000000000000000000000000_0000001_1_0000_000
10000000000000000000000000000000000000000000000000_0000001_1_0000_000
00000000000000000000000000000000000000000000000000_0000100_1_0000_000
00110010000000000000000000000000000000000000000000_0000111_1_1100_010
10000000000000000000000000000000000000000000000000_0000001_1_0000_000
01001001100000000000000000000000000000000000000000_0001001_1_0000_001
01101100010110111100000000000000000000000000000000_0010011_1_0000_000
10000000000000000000000000000000000000000000000000_0000001_1_0000_000
00100000000000000000000000000000000000000000000000_0000110_1_0000_010
00100100000000000000000000000000000000000000000000_0000110_1_0000_010
01000010100000000000000000000000000000000000000000_0001101_1_0000_000
00000000000000000000000000000000000000000000000000_0000000_1_0000_000
00000000000000000000000000000000000000000000000000_0000000_1_0000_000
00000000000000000000000000000000000000000000000000_0000000_1_0000_000
00000000000000000000000000000000000000000000000000_0000000_1_0000_000
00001000000000000000000000000000000000000000000000_0000101_1_1000_001
01011101001100000000000000000000000000000000000000_0001100_1_0100_011
00100100000000000000000000000000000000000000000000_0000110_1_0000_010
01000101110100000000000000000000000000000000000000_0001111_1_0000_000
10000000000000000000000000000000000000000000000000_0000001_1_0000_000
00010000000000000000000000000000000000000000000000_0000101_1_1000_001
10000000000000000000000000000000000000000000000000_0000001_1_0000_000
11000000000000000000000000000000000000000000000000_0000010_1_0000_000
00000000000000000000000000000000000000000000000000_0000000_1_0000_000
00000000000000000000000000000000000000000000000000_0000000_1_0000_000
00000000000000000000000000000000000000000000000000_0000000_1_0000_000
00000000000000000000000000000000000000000000000000_0000000_1_0000_000
01010100000000000000000000000000000000000000000000_0001010_1_1000_010
01101000001000010000000000000000000000000000000000_0010000_1_0000_011
01000000000000000000000000000000000000000000000000_0001001_1_0000_001
01000011110000000000000000000000000000000000000000_0001111_1_0000_000
00000000000000000000000000000000000000000000000000_0000000_1_0000_000
00000000000000000000000000000000000000000000000000_0000000_1_0000_000
00000000000000000000000000000000000000000000000000_0000000_1_0000_000
00000000000000000000000000000000000000000000000000_0000000_1_0000_000
00000000000000000000000000000000000000000000000000_0000000_1_0000_000
00000000000000000000000000000000000000000000000000_0000000_1_0000_000
00000000000000000000000000000000000000000000000000_0000000_1_0000_000
00000000000000000000000000000000000000000000000000_0000000_1_0000_000
01010111100000000000000000000000000000000000000000_0001010_1_0100_011
01011111010100000000000000000000000000000000000000_0001110_1_0010_011
01101100101110100000000000000000000000000000000000_0010000_1_0000_100
01100100000001010100010000000000000000000000000000_0011010_1_0000_000
00101100000000000000000000000000000000000000000000_0000110_1_0000_010
00011000000000000000000000000000000000000000000000_0000101_1_0000_001
00010000000000000000000000000000000000000000000000_0000101_1_1000_001
00101000100000000000000000000000000000000000000000_0001001_1_0000_000
00101100000000000000000000000000000000000000000000_0000110_1_0000_010
01000011000000000000000000000000000000000000000000_0001001_1_1100_010
10000000000000000000000000000000000000000000000000_0000001_1_0000_000
00111010011000000000000000000000000000000000000000_0001011_1_0000_000
01010100000000000000000000000000000000000000000000_0001010_1_0100_010
10000000000000000000000000000000000000000000000000_0000001_1_0000_000
01001110100000000000000000000000000000000000000000_0001001_1_0000_001
01000001001000000000000000000000000000000000000000_0001100_1_0000_000
00000000000000000000000000000000000000000000000000_0000000_1_0000_000
00000000000000000000000000000000000000000000000000_0000000_1_0000_000
00000000000000000000000000000000000000000000000000_0000000_1_0000_000
00000000000000000000000000000000000000000000000000_0000000_1_0000_000
10000000000000000000000000000000000000000000000000_0000001_1_0000_000
00011000000000000000000000000000000000000000000000_0000101_1_0000_001
00100000000000000000000000000000000000000000000000_0000110_1_1100_010
10110000000000000000000000000000000000000000000000_0000100_1_0000_000
10000000000000000000000000000000000000000000000000_0000001_1_0000_000
01001111100000000000000000000000000000000000000000_0001001_1_1110_011
01011001000000000000000000000000000000000000000000_0001011_1_0000_011
01000000011100000000000000000000000000000000000000_0001111_1_0000_000
00000000000000000000000000000000000000000000000000_0000000_1_0000_000
00000000000000000000000000000000000000000000000000_0000000_1_0000_000
00000000000000000000000000000000000000000000000000_0000000_1_0000_000
00000000000000000000000000000000000000000000000000_0000000_1_0000_000
00000000000000000000000000000000000000000000000000_0000000_1_0000_000
00000000000000000000000000000000000000000000000000_0000000_1_0000_000
00000000000000000000000000000000000000000000000000_0000000_1_0000_000
00000000000000000000000000000000000000000000000000_0000000_1_0000_000
00100100000000000000000000000000000000000000000000_0000110_1_1100_010
01010111000000000000000000000000000000000000000000_0001010_1_1110_011
01001101100000000000000000000000000000000000000000_0001001_1_0000_011
00011111100000000000000000000000000000000000000000_0001100_1_0000_000
00000000000000000000000000000000000000000000000000_0000000_1_0000_000
00000000000000000000000000000000000000000000000000_0000000_1_0000_000
00000000000000000000000000000000000000000000000000_0000000_1_0000_000
00000000000000000000000000000000000000000000000000_0000000_1_0000_000
00000000000000000000000000000000000000000000000000_0000000_1_0000_000
00000000000000000000000000000000000000000000000000_0000000_1_0000_000
00000000000000000000000000000000000000000000000000_0000000_1_0000_000
00000000000000000000000000000000000000000000000000_0000000_1_0000_000
01001000000000000000000000000000000000000000000000_0001001_1_0000_011
00100000000000000000000000000000000000000000000000_0000110_1_0000_010
01011001001000000000000000000000000000000000000000_0001011_1_1000_011
01010000010000010000000000000000000000000000000000_0010010_1_0000_000
10000000000000000000000000000000000000000000000000_0000001_1_0000_000
10000000000000000000000000000000000000000000000000_0000001_1_0000_000
00000000000000000000000000000000000000000000000000_0000101_1_0000_001
10000000000000000000000000000000000000000000000000_0000010_1_0000_000
00000000000000000000000000000000000000000000000000_0000000_1_0000_000
00000000000000000000000000000000000000000000000000_0000000_1_0000_000
00000000000000000000000000000000000000000000000000_0000000_1_0000_000
00000000000000000000000000000000000000000000000000_0000000_1_0000_000
00111010000000000000000000000000000000000000000000_0000111_1_1100_011
01000110000000000000000000000000000000000000000000_0001001_1_1100_010
01100110001011000000000000000000000000000000000000_0010000_1_1110_011
01000001011011111000000000000000000000000000000000_0010001_1_0000_000
00000000000000000000000000000000000000000000000000_0000000_1_0000_000
00000000000000000000000000000000000000000000000000_0000000_1_0000_000
00000000000000000000000000000000000000000000000000_0000000_1_0000_000
00000000000000000000000000000000000000000000000000_0000000_1_0000_000
00000000000000000000000000000000000000000000000000_0000000_1_0000_000
00000000000000000000000000000000000000000000000000_0000000_1_0000_000
00000000000000000000000000000000000000000000000000_0000000_1_0000_000
00000000000000000000000000000000000000000000000000_0000000_1_0000_000
10000000000000000000000000000000000000000000000000_0000001_1_0000_000
00010000000000000000000000000000000000000000000000_0000101_1_0000_001
01110000101110001100100000000000000000000000000000_0010101_1_1010_100
01110010000110101011101010000000000000000000000000_0011010_1_0000_000
10000000000000000000000000000000000000000000000000_0000001_1_0000_000
00101100000000000000000000000000000000000000000000_0000110_1_0000_010
10000000000000000000000000000000000000000000000000_0000001_1_0000_000
10000000000000000000000000000000000000000000000000_0000011_1_0000_000
00000000000000000000000000000000000000000000000000_0000000_1_0000_000
00000000000000000000000000000000000000000000000000_0000000_1_0000_000
00000000000000000000000000000000000000000000000000_0000000_1_0000_000
00000000000000000000000000000000000000000000000000_0000000_1_0000_000
00100000000000000000000000000000000000000000000000_0000110_1_0000_010
00111000000000000000000000000000000000000000000000_0000111_1_0110_011
01010001010000000000000000000000000000000000000000_0001010_1_1101_100
00100000111101000000000000000000000000000000000000_0001110_1_0000_000
00000000000000000000000000000000000000000000000000_0000000_1_0000_000
00000000000000000000000000000000000000000000000000_0000000_1_0000_000
00000000000000000000000000000000000000000000000000_0000000_1_0000_000
00000000000000000000000000000000000000000000000000_0000000_1_0000_000
00000000000000000000000000000000000000000000000000_0000000_1_0000_000
00000000000000000000000000000000000000000000000000_0000000_1_0000_000
00000000000000000000000000000000000000000000000000_0000000_1_0000_000
00000000000000000000000000000000000000000000000000_0000000_1_0000_000
01000100100000000000000000000000000000000000000000_0001001_1_1100_010
01011011111000000000000000000000000000000000000000_0001011_1_0100_010
00110010000000000000000000000000000000000000000000_0000111_1_1000_010
01101010000000101101100000000000000000000000000000_0010110_1_0000_000
00000000000000000000000000000000000000000000000000_0000000_1_0000_000
00000000000000000000000000000000000000000000000000_0000000_1_0000_000
00000000000000000000000000000000000000000000000000_0000000_1_0000_000
00000000000000000000000000000000000000000000000000_0000000_1_0000_000
00000000000000000000000000000000000000000000000000_0000000_1_0000_000
00000000000000000000000000000000000000000000000000_0000000_1_0000_000
00000000000000000000000000000000000000000000000000_0000000_1_0000_000
00000000000000000000000000000000000000000000000000_0000000_1_0000_000
01110010100100010111100000000000000000000000000000_0010101_1_0001_100
00001000000000000000000000000000000000000000000000_0000101_1_1000_001
00101100000000000000000000000000000000000000000000_0000110_1_1000_010
01100001010010010001110000000000000000000000000000_0010111_1_0000_000
00000000000000000000000000000000000000000000000000_0000000_1_0000_000
00000000000000000000000000000000000000000000000000_0000000_1_0000_000
00000000000000000000000000000000000000000000000000_0000000_1_0000_000
00000000000000000000000000000000000000000000000000_0000000_1_0000_000
00000000000000000000000000000000000000000000000000_0000000_1_0000_000
00000000000000000000000000000000000000000000000000_0000000_1_0000_000
00000000000000000000000000000000000000000000000000_0000000_1_0000_000
00000000000000000000000000000000000000000000000000_0000000_1_0000_000
10000000000000000000000000000000000000000000000000_0000001_1_0000_000
01010100010000000000000000000000000000000000000000_0001010_1_0100_010
00111100000000000000000000000000000000000000000000_0000111_1_1010_100
01101111100010100110100000000000000000000000000000_0010110_1_0000_000
10000000000000000000000000000000000000000000000000_0000001_1_0000_000
10000000000000000000000000000000000000000000000000_0000001_1_0000_000
10000000000000000000000000000000000000000000000000_0000001_1_0000_000
01000001000000000000000000000000000000000000000000_0001001_1_0000_000
00000000000000000000000000000000000000000000000000_0000000_1_0000_000
00000000000000000000000000000000000000000000000000_0000000_1_0000_000
00000000000000000000000000000000000000000000000000_0000000_1_0000_000
00000000000000000000000000000000000000000000000000_0000000_1_0000_000
00100000000000000000000000000000000000000000000000_0000110_1_0000_010
00010000000000000000000000000000000000000000000000_0000101_1_1000_001
10000000000000000000000000000000000000000000000000_0000001_1_0000_000
10010000000000000000000000000000000000000000000000_0000100_1_0000_000
00000000000000000000000000000000000000000000000000_0000000_1_0000_000
00000000000000000000000000000000000000000000000000_0000000_1_0000_000
00000000000000000000000000000000000000000000000000_0000000_1_0000_000
00000000000000000000000000000000000000000000000000_0000000_1_0000_000
00000000000000000000000000000000000000000000000000_0000000_1_0000_000
00000000000000000000000000000000000000000000000000_0000000_1_0000_000
00000000000000000000000000000000000000000000000000_0000000_1_0000_000
00000000000000000000000000000000000000000000000000_0000000_1_0000_000
01000000000000000000000000000000000000000000000000_0001001_1_1000_001
01100110011010010000000000000000000000000000000000_0010000_1_0111_100
01101010000100010000000000000000000000000000000000_0010000_1_0010_011
01100101100111111011100100000000000000000000000000_0011000_1_0000_000
10000000000000000000000000000000000000000000000000_0000001_1_0000_000
10000000000000000000000000000000000000000000000000_0000001_1_0000_000
00001000000000000000000000000000000000000000000000_0000101_1_1000_001
11000000000000000000000000000000000000000000000000_0000010_1_0000_000
10000000000000000000000000000000000000000000000000_0000001_1_0000_000
00100100000000000000000000000000000000000000000000_0000110_1_0000_010
10000000000000000000000000000000000000000000000000_0000001_1_0000_000
10000000000000000000000000000000000000000000000000_0000011_1_0000_000
00001000000000000000000000000000000000000000000000_0000101_1_1000_001
01100110010111010000000000000000000000000000000000_0010000_1_0100_100
00110100000000000000000000000000000000000000000000_0000111_1_0000_011
01001110110100000000000000000000000000000000000000_0010001_1_0000_000
10000000000000000000000000000000000000000000000000_0000001_1_0000_000
10000000000000000000000000000000000000000000000000_0000001_1_0000_000
00010000000000000000000000000000000000000000000000_0000101_1_0000_001
01000000000000000000000000000000000000000000000000_0001010_1_0000_000
00000000000000000000000000000000000000000000000000_0000101_1_0000_001
10000000000000000000000000000000000000000000000000_0000001_1_0000_000
00100000000000000000000000000000000000000000000000_0000110_1_1100_010
10110000000000000000000000000000000000000000000000_0000100_1_0000_000
01010011110000000000000000000000000000000000000000_0001010_1_0100_010
10000000000000000000000000000000000000000000000000_0000001_1_0000_000
01010010100000000000000000000000000000000000000000_0001010_1_0000_010
01111011111101001110110001010000000000000000000000_0011110_1_0000_000
10000000000000000000000000000000000000000000000000_0000001_1_0000_000
00101100000000000000000000000000000000000000000000_0000110_1_1100_010
01010000110000000000000000000000000000000000000000_0001010_1_1111_100
01011100011011111100000000000000000000000000000000_0010010_1_0000_000
10000000000000000000000000000000000000000000000000_0000001_1_0000_000
10000000000000000000000000000000000000000000000000_0000001_1_0000_000
00001000000000000000000000000000000000000000000000_0000101_1_0000_001
10000000000000000000000000000000000000000000000000_0000010_1_0000_000
01110100000011011000000000000000000000000000000000_0010101_1_1010_011
01000000000000000000000000000000000000000000000000_0001001_1_1000_001
00101100000000000000000000000000000000000000000000_0000110_1_1000_010
00111101101110000000000000000000000000000000000000_0001110_1_0000_000
01010001000000000000000000000000000000000000000000_0001010_1_1111_100
01001010000000000000000000000000000000000000000000_0001001_1_1110_011
10000000000000000000000000000000000000000000000000_0000001_1_0000_000
00001111111000000000000000000000000000000000000000_0001011_1_0000_000
00000000000000000000000000000000000000000000000000_0000000_1_0000_000
00000000000000000000000000000000000000000000000000_0000000_1_0000_000
00000000000000000000000000000000000000000000000000_0000000_1_0000_000
00000000000000000000000000000000000000000000000000_0000000_1_0000_000
00111010000000000000000000000000000000000000000000_0000111_1_0110_011
00110000000000000000000000000000000000000000000000_0000111_1_1100_010
00011000000000000000000000000000000000000000000000_0000101_1_0000_001
01000110001111000000000000000000000000000000000000_0001111_1_0000_000
00000000000000000000000000000000000000000000000000_0000000_1_0000_000
00000000000000000000000000000000000000000000000000_0000000_1_0000_000
00000000000000000000000000000000000000000000000000_0000000_1_0000_000
00000000000000000000000000000000000000000000000000_0000000_1_0000_000
00000000000000000000000000000000000000000000000000_0000000_1_0000_000
00000000000000000000000000000000000000000000000000_0000000_1_0000_000
00000000000000000000000000000000000000000000000000_0000000_1_0000_000
00000000000000000000000000000000000000000000000000_0000000_1_0000_000
01001000100000000000000000000000000000000000000000_0001001_1_1110_011
01010111100000000000000000000000000000000000000000_0001010_1_0110_011
01110000100001000000100000000000000000000000000000_0010101_1_1100_011
01000001111101111000000000000000000000000000000000_0010010_1_0000_000
00000000000000000000000000000000000000000000000000_0000000_1_0000_000
00000000000000000000000000000000000000000000000000_0000000_1_0000_000
00000000000000000000000000000000000000000000000000_0000000_1_0000_000
00000000000000000000000000000000000000000000000000_0000000_1_0000_000
00000000000000000000000000000000000000000000000000_0000000_1_0000_000
00000000000000000000000000000000000000000000000000_0000000_1_0000_000
00000000000000000000000000000000000000000000000000_0000000_1_0000_000
00000000000000000000000000000000000000000000000000_0000000_1_0000_000
01100010011000100000000000000000000000000000000000_0010000_1_1111_100
01010101000000000000000000000000000000000000000000_0001010_1_0100_010
01100011000010010000000000000000000000000000000000_0010000_1_0010_100
01111000101000110100000111111101001000000000000000_0100100_1_0000_000
10000000000000000000000000000000000000000000000000_0000001_1_0000_000
10000000000000000000000000000000000000000000000000_0000001_1_0000_000
10000000000000000000000000000000000000000000000000_0000001_1_0000_000
00111000000000000000000000000000000000000000000000_0000111_1_0000_000
10000000000000000000000000000000000000000000000000_0000001_1_0000_000
10000000000000000000000000000000000000000000000000_0000001_1_0000_000
10000000000000000000000000000000000000000000000000_0000001_1_0000_000
00010000000000000000000000000000000000000000000000_0000100_1_0000_000
01100100000011010000000000000000000000000000000000_0010000_1_0010_011
01011110101000000000000000000000000000000000000000_0001101_1_0101_100
00101000000000000000000000000000000000000000000000_0000110_1_0100_010
01100011010010010010101010000000000000000000000000_0011001_1_0000_000
00111100000000000000000000000000000000000000000000_0000111_1_1111_100
00111100000000000000000000000000000000000000000000_0000111_1_0000_100
10000000000000000000000000000000000000000000000000_0000001_1_0000_000
11111000000000000000000000000000000000000000000000_0001001_1_0000_000
00111000000000000000000000000000000000000000000000_0000111_1_0000_011
10000000000000000000000000000000000000000000000000_0000001_1_0000_000
01000100000000000000000000000000000000000000000000_0001001_1_0000_010
10000000000000000000000000000000000000000000000000_0000110_1_0000_000
01010001000000000000000000000000000000000000000000_0001010_1_0000_010
01101110011100100000000000000000000000000000000000_0010000_1_0000_100
01000000100000000000000000000000000000000000000000_0001001_1_1000_001
01101010100000110000001000000000000000000000000000_0010111_1_0000_000
10000000000000000000000000000000000000000000000000_0000001_1_0000_000
10000000000000000000000000000000000000000000000000_0000001_1_0000_000
00101000000000000000000000000000000000000000000000_0000110_1_1100_010
11100000000000000000000000000000000000000000000000_0000011_1_0000_000
00000000000000000000000000000000000000000000000000_0000000_1_0000_000
00000000000000000000000000000000000000000000000000_0000000_1_0000_000
00000000000000000000000000000000000000000000000000_0000000_1_0000_000
00000000000000000000000000000000000000000000000000_0000000_1_0000_000
00000000000000000000000000000000000000000000000000_0000101_1_1000_001
10000000000000000000000000000000000000000000000000_0000001_1_0000_000
00010000000000000000000000000000000000000000000000_0000101_1_0000_001
11000000000000000000000000000000000000000000000000_0000011_1_0000_000
00000000000000000000000000000000000000000000000000_0000000_1_0000_000
00000000000000000000000000000000000000000000000000_0000000_1_0000_000
00000000000000000000000000000000000000000000000000_0000000_1_0000_000
00000000000000000000000000000000000000000000000000_0000000_1_0000_000
00000000000000000000000000000000000000000000000000_0000000_1_0000_000
00000000000000000000000000000000000000000000000000_0000000_1_0000_000
00000000000000000000000000000000000000000000000000_0000000_1_0000_000
00000000000000000000000000000000000000000000000000_0000000_1_0000_000
01010001100000000000000000000000000000000000000000_0001010_1_1111_100
10000000000000000000000000000000000000000000000000_0000001_1_0000_000
10000000000000000000000000000000000000000000000000_0000001_1_0000_000
01000001011110000000000000000000000000000000000000_0001101_1_0000_000
00000000000000000000000000000000000000000000000000_0000000_1_0000_000
00000000000000000000000000000000000000000000000000_0000000_1_0000_000
00000000000000000000000000000000000000000000000000_0000000_1_0000_000
00000000000000000000000000000000000000000000000000_0000000_1_0000_000
10000000000000000000000000000000000000000000000000_0000001_1_0000_000
00101100000000000000000000000000000000000000000000_0000110_1_1100_010
10000000000000000000000000000000000000000000000000_0000001_1_0000_000
11100000000000000000000000000000000000000000000000_0000011_1_0000_000
01010110110000000000000000000000000000000000000000_0001010_1_1110_011
00101100000000000000000000000000000000000000000000_0000110_1_0100_010
10000000000000000000000000000000000000000000000000_0000001_1_0000_000
01101100101110001110100000000000000000000000000000_0010101_1_0000_000
00111100000000000000000000000000000000000000000000_0000111_1_1111_100
00001000000000000000000000000000000000000000000000_0000101_1_1000_001
00110100000000000000000000000000000000000000000000_0000111_1_1110_011
11111111100000000000000000000000000000000000000000_0001001_1_0000_000
00000000000000000000000000000000000000000000000000_0000000_1_0000_000
00000000000000000000000000000000000000000000000000_0000000_1_0000_000
00000000000000000000000000000000000000000000000000_0000000_1_0000_000
00000000000000000000000000000000000000000000000000_0000000_1_0000_000
01001010100000000000000000000000000000000000000000_0001001_1_1110_011
01000101100000000000000000000000000000000000000000_0001001_1_0100_010
01000001000000000000000000000000000000000000000000_0001001_1_0000_001
01100000001110101110100000000000000000000000000000_0010110_1_0000_000
00000000000000000000000000000000000000000000000000_0000000_1_0000_000
00000000000000000000000000000000000000000000000000_0000000_1_0000_000
00000000000000000000000000000000000000000000000000_0000000_1_0000_000
00000000000000000000000000000000000000000000000000_0000000_1_0000_000
00000000000000000000000000000000000000000000000000_0000000_1_0000_000
00000000000000000000000000000000000000000000000000_0000000_1_0000_000
00000000000000000000000000000000000000000000000000_0000000_1_0000_000
00000000000000000000000000000000000000000000000000_0000000_1_0000_000
00001000000000000000000000000000000000000000000000_0000101_1_1000_001
10000000000000000000000000000000000000000000000000_0000001_1_0000_000
00000000000000000000000000000000000000000000000000_0000101_1_0000_001
01010001001000000000000000000000000000000000000000_0001100_1_0000_000
00000000000000000000000000000000000000000000000000_0000000_1_0000_000
00000000000000000000000000000000000000000000000000_0000000_1_0000_000
00000000000000000000000000000000000000000000000000_0000000_1_0000_000
00000000000000000000000000000000000000000000000000_0000000_1_0000_000
00000000000000000000000000000000000000000000000000_0000000_1_0000_000
00000000000000000000000000000000000000000000000000_0000000_1_0000_000
00000000000000000000000000000000000000000000000000_0000000_1_0000_000
00000000000000000000000000000000000000000000000000_0000000_1_0000_000
01000111100000000000000000000000000000000000000000_0001001_1_1100_010
01011000110000000000000000000000000000000000000000_0001011_1_0001_100
00100000000000000000000000000000000000000000000000_0000110_1_1000_010
01011101010011000110000000000000000000000000000000_0010100_1_0000_000
00000000000000000000000000000000000000000000000000_0000000_1_0000_000
00000000000000000000000000000000000000000000000000_0000000_1_0000_000
00000000000000000000000000000000000000000000000000_0000000_1_0000_000
00000000000000000000000000000000000000000000000000_0000000_1_0000_000
00100000000000000000000000000000000000000000000000_0000110_1_1100_010
00011000000000000000000000000000000000000000000000_0000101_1_1000_001
10000000000000000000000000000000000000000000000000_0000001_1_0000_000
11110000000000000000000000000000000000000000000000_0000100_1_0000_000
10000000000000000000000000000000000000000000000000_0000001_1_0000_000
00010000000000000000000000000000000000000000000000_0000101_1_0000_001
10000000000000000000000000000000000000000000000000_0000001_1_0000_000
10000000000000000000000000000000000000000000000000_0000010_1_0000_000
00000000000000000000000000000000000000000000000000_0000000_1_0000_000
00000000000000000000000000000000000000000000000000_0000000_1_0000_000
00000000000000000000000000000000000000000000000000_0000000_1_0000_000
00000000000000000000000000000000000000000000000000_0000000_1_0000_000
00000000000000000000000000000000000000000000000000_0000000_1_0000_000
00000000000000000000000000000000000000000000000000_0000000_1_0000_000
00000000000000000000000000000000000000000000000000_0000000_1_0000_000
00000000000000000000000000000000000000000000000000_0000000_1_0000_000
01101000010101000000000000000000000000000000000000_0010000_1_1010_100
01100011000001100000000000000000000000000000000000_0010000_1_0110_011
01000100000000000000000000000000000000000000000000_0001001_1_0000_010
01000101010100110000000000000000000000000000000000_0010010_1_0000_000
00000000000000000000000000000000000000000000000000_0000000_1_0000_000
00000000000000000000000000000000000000000000000000_0000000_1_0000_000
00000000000000000000000000000000000000000000000000_0000000_1_0000_000
00000000000000000000000000000000000000000000000000_0000000_1_0000_000
00000000000000000000000000000000000000000000000000_0000000_1_0000_000
00000000000000000000000000000000000000000000000000_0000000_1_0000_000
00000000000000000000000000000000000000000000000000_0000000_1_0000_000
00000000000000000000000000000000000000000000000000_0000000_1_0000_000
10000000000000000000000000000000000000000000000000_0000001_1_0000_000
00011000000000000000000000000000000000000000000000_0000101_1_0000_001
00000000000000000000000000000000000000000000000000_0000101_1_1000_001
10100000000000000000000000000000000000000000000000_0000011_1_0000_000
00000000000000000000000000000000000000000000000000_0000000_1_0000_000
00000000000000000000000000000000000000000000000000_0000000_1_0000_000
00000000000000000000000000000000000000000000000000_0000000_1_0000_000
00000000000000000000000000000000000000000000000000_0000000_1_0000_000
00000000000000000000000000000000000000000000000000_0000000_1_0000_000
00000000000000000000000000000000000000000000000000_0000000_1_0000_000
00000000000000000000000000000000000000000000000000_0000000_1_0000_000
00000000000000000000000000000000000000000000000000_0000000_1_0000_000
10000000000000000000000000000000000000000000000000_0000001_1_0000_000
10000000000000000000000000000000000000000000000000_0000001_1_0000_000
00010000000000000000000000000000000000000000000000_0000101_1_1000_001
11000000000000000000000000000000000000000000000000_0000010_1_0000_000
00000000000000000000000000000000000000000000000000_0000000_1_0000_000
00000000000000000000000000000000000000000000000000_0000000_1_0000_000
00000000000000000000000000000000000000000000000000_0000000_1_0000_000
00000000000000000000000000000000000000000000000000_0000000_1_0000_000
00000000000000000000000000000000000000000000000000_0000000_1_0000_000
00000000000000000000000000000000000000000000000000_0000000_1_0000_000
00000000000000000000000000000000000000000000000000_0000000_1_0000_000
00000000000000000000000000000000000000000000000000_0000000_1_0000_000
01010000000000000000000000000000000000000000000000_0001010_1_1000_100
00100100000000000000000000000000000000000000000000_0000110_1_1000_010
00100100000000000000000000000000000000000000000000_0000110_1_1100_010
01100110100011001000101100000000000000000000000000_0011000_1_0000_000
00000000000000000000000000000000000000000000000000_0000000_1_0000_000
00000000000000000000000000000000000000000000000000_0000000_1_0000_000
00000000000000000000000000000000000000000000000000_0000000_1_0000_000
00000000000000000000000000000000000000000000000000_0000000_1_0000_000
00000000000000000000000000000000000000000000000000_0000000_1_0000_000
00000000000000000000000000000000000000000000000000_0000000_1_0000_000
00000000000000000000000000000000000000000000000000_0000000_1_0000_000
00000000000000000000000000000000000000000000000000_0000000_1_0000_000
10000000000000000000000000000000000000000000000000_0000001_1_0000_000
01001100100000000000000000000000000000000000000000_0001001_1_0100_011
01010110100000000000000000000000000000000000000000_0001010_1_1110_011
01001010001011100000000000000000000000000000000000_0001111_1_0000_000
00000000000000000000000000000000000000000000000000_0000000_1_0000_000
00000000000000000000000000000000000000000000000000_0000000_1_0000_000
00000000000000000000000000000000000000000000000000_0000000_1_0000_000
00000000000000000000000000000000000000000000000000_0000000_1_0000_000
00000000000000000000000000000000000000000000000000_0000000_1_0000_000
00000000000000000000000000000000000000000000000000_0000000_1_0000_000
00000000000000000000000000000000000000000000000000_0000000_1_0000_000
00000000000000000000000000000000000000000000000000_0000000_1_0000_000
10000000000000000000000000000000000000000000000000_0000001_1_0000_000
01000110000000000000000000000000000000000000000000_0001001_1_0000_010
10000000000000000000000000000000000000000000000000_0000001_1_0000_000
00101000000000000000000000000000000000000000000000_0000111_1_0000_000
10000000000000000000000000000000000000000000000000_0000001_1_0000_000
10000000000000000000000000000000000000000000000000_0000001_1_0000_000
10000000000000000000000000000000000000000000000000_0000001_1_0000_000
01001101000000000000000000000000000000000000000000_0001001_1_0000_000
00000000000000000000000000000000000000000000000000_0000000_1_0000_000
00000000000000000000000000000000000000000000000000_0000000_1_0000_000
00000000000000000000000000000000000000000000000000_0000000_1_0000_000
00000000000000000000000000000000000000000000000000_0000000_1_0000_000
01110001010100110001100000000000000000000000000000_0010101_1_1000_100
01101001100110000000000000000000000000000000000000_0010000_1_1100_011
10000000000000000000000000000000000000000000000000_0000001_1_0000_000
01111000000000000010101001100011000000000000000000_0100001_1_0000_000
00000000000000000000000000000000000000000000000000_0000000_1_0000_000
00000000000000000000000000000000000000000000000000_0000000_1_0000_000
00000000000000000000000000000000000000000000000000_0000000_1_0000_000
00000000000000000000000000000000000000000000000000_0000000_1_0000_000
10000000000000000000000000000000000000000000000000_0000001_1_0000_000
10000000000000000000000000000000000000000000000000_0000001_1_0000_000
00100000000000000000000000000000000000000000000000_0000110_1_1100_010
00110011000000000000000000000000000000000000000000_0001000_1_0000_000
00100100000000000000000000000000000000000000000000_0000110_1_1000_010
01000010000000000000000000000000000000000000000000_0001001_1_1100_010
01101000101010010000000000000000000000000000000000_0010000_1_0110_100
01111011101110100110000100101101100000000000000000_0100010_1_0000_000
00110110000000000000000000000000000000000000000000_0000111_1_0000_011
00001000000000000000000000000000000000000000000000_0000101_1_0000_001
00101100000000000000000000000000000000000000000000_0000110_1_0000_010
01000000000000000000000000000000000000000000000000_0001111_1_0000_000
00000000000000000000000000000000000000000000000000_0000000_1_0000_000
00000000000000000000000000000000000000000000000000_0000000_1_0000_000
00000000000000000000000000000000000000000000000000_0000000_1_0000_000
00000000000000000000000000000000000000000000000000_0000000_1_0000_000
00010000000000000000000000000000000000000000000000_0000101_1_1000_001
00110000000000000000000000000000000000000000000000_0000111_1_1100_010
01000110000000000000000000000000000000000000000000_0001001_1_1000_010
01110000001011101000011110000000000000000000000000_0011010_1_0000_000
00000000000000000000000000000000000000000000000000_0000000_1_0000_000
00000000000000000000000000000000000000000000000000_0000000_1_0000_000
00000000000000000000000000000000000000000000000000_0000000_1_0000_000
00000000000000000000000000000000000000000000000000_0000000_1_0000_000
10000000000000000000000000000000000000000000000000_0000001_1_0000_000
10000000000000000000000000000000000000000000000000_0000001_1_0000_000
10000000000000000000000000000000000000000000000000_0000001_1_0000_000
00110000000000000000000000000000000000000000000000_0000110_1_0000_000
10000000000000000000000000000000000000000000000000_0000001_1_0000_000
00001000000000000000000000000000000000000000000000_0000101_1_1000_001
00010000000000000000000000000000000000000000000000_0000101_1_0000_001
11000000000000000000000000000000000000000000000000_0000011_1_0000_000
00000000000000000000000000000000000000000000000000_0000000_1_0000_000
00000000000000000000000000000000000000000000000000_0000000_1_0000_000
00000000000000000000000000000000000000000000000000_0000000_1_0000_000
00000000000000000000000000000000000000000000000000_0000000_1_0000_000
00000000000000000000000000000000000000000000000000_0000000_1_0000_000
00000000000000000000000000000000000000000000000000_0000000_1_0000_000
00000000000000000000000000000000000000000000000000_0000000_1_0000_000
00000000000000000000000000000000000000000000000000_0000000_1_0000_000
01100100100101110000000000000000000000000000000000_0010000_1_1110_100
01010010010000000000000000000000000000000000000000_0001010_1_1100_010
01011110010100000000000000000000000000000000000000_0001101_1_1110_011
11110111110000000000000000000000000000000000000000_0001010_1_0000_000
00110010000000000000000000000000000000000000000000_0000111_1_0000_010
10000000000000000000000000000000000000000000000000_0000001_1_0000_000
10000000000000000000000000000000000000000000000000_0000001_1_0000_000
10000000000000000000000000000000000000000000000000_0000011_1_0000_000
00000000000000000000000000000000000000000000000000_0000000_1_0000_000
00000000000000000000000000000000000000000000000000_0000000_1_0000_000
00000000000000000000000000000000000000000000000000_0000000_1_0000_000
00000000000000000000000000000000000000000000000000_0000000_1_0000_000
10000000000000000000000000000000000000000000000000_0000001_1_0000_000
00011000000000000000000000000000000000000000000000_0000101_1_0000_001
10000000000000000000000000000000000000000000000000_0000001_1_0000_000
10000000000000000000000000000000000000000000000000_0000010_1_0000_000
00000000000000000000000000000000000000000000000000_0000000_1_0000_000
00000000000000000000000000000000000000000000000000_0000000_1_0000_000
00000000000000000000000000000000000000000000000000_0000000_1_0000_000
00000000000000000000000000000000000000000000000000_0000000_1_0000_000
00000000000000000000000000000000000000000000000000_0000000_1_0000_000
00000000000000000000000000000000000000000000000000_0000000_1_0000_000
00000000000000000000000000000000000000000000000000_0000000_1_0000_000
00000000000000000000000000000000000000000000000000_0000000_1_0000_000
10000000000000000000000000000000000000000000000000_0000001_1_0000_000
10000000000000000000000000000000000000000000000000_0000001_1_0000_000
10000000000000000000000000000000000000000000000000_0000001_1_0000_000
01000000000000000000000000000000000000000000000000_0001001_1_0000_000
00000000000000000000000000000000000000000000000000_0000000_1_0000_000
00000000000000000000000000000000000000000000000000_0000000_1_0000_000
00000000000000000000000000000000000000000000000000_0000000_1_0000_000
00000000000000000000000000000000000000000000000000_0000000_1_0000_000
00000000000000000000000000000000000000000000000000_0000000_1_0000_000
00000000000000000000000000000000000000000000000000_0000000_1_0000_000
00000000000000000000000000000000000000000000000000_0000000_1_0000_000
00000000000000000000000000000000000000000000000000_0000000_1_0000_000
10000000000000000000000000000000000000000000000000_0000001_1_0000_000
10000000000000000000000000000000000000000000000000_0000001_1_0000_000
00011000000000000000000000000000000000000000000000_0000101_1_1000_001
01000000110000000000000000000000000000000000000000_0001010_1_0000_000
00000000000000000000000000000000000000000000000000_0000000_1_0000_000
00000000000000000000000000000000000000000000000000_0000000_1_0000_000
00000000000000000000000000000000000000000000000000_0000000_1_0000_000
00000000000000000000000000000000000000000000000000_0000000_1_0000_000
00000000000000000000000000000000000000000000000000_0000000_1_0000_000
00000000000000000000000000000000000000000000000000_0000000_1_0000_000
00000000000000000000000000000000000000000000000000_0000000_1_0000_000
00000000000000000000000000000000000000000000000000_0000000_1_0000_000
01011110011000000000000000000000000000000000000000_0001101_1_1010_100
01001111100000000000000000000000000000000000000000_0001001_1_0000_011
00111000000000000000000000000000000000000000000000_0000111_1_0110_011
01101101000001001010000011000000000000000000000000_0011010_1_0000_000
00000000000000000000000000000000000000000000000000_0000000_1_0000_000
00000000000000000000000000000000000000000000000000_0000000_1_0000_000
00000000000000000000000000000000000000000000000000_0000000_1_0000_000
00000000000000000000000000000000000000000000000000_0000000_1_0000_000
00000000000000000000000000000000000000000000000000_0000000_1_0000_000
00000000000000000000000000000000000000000000000000_0000000_1_0000_000
00000000000000000000000000000000000000000000000000_0000000_1_0000_000
00000000000000000000000000000000000000000000000000_0000000_1_0000_000
00111100000000000000000000000000000000000000000000_0000111_1_0000_100
00101100000000000000000000000000000000000000000000_0000110_1_0100_010
10000000000000000000000000000000000000000000000000_0000001_1_0000_000
10000010000000000000000000000000000000000000000000_0000111_1_0000_000
00000000000000000000000000000000000000000000000000_0000000_1_0000_000
00000000000000000000000000000000000000000000000000_0000000_1_0000_000
00000000000000000000000000000000000000000000000000_0000000_1_0000_000
00000000000000000000000000000000000000000000000000_0000000_1_0000_000
00000000000000000000000000000000000000000000000000_0000000_1_0000_000
00000000000000000000000000000000000000000000000000_0000000_1_0000_000
00000000000000000000000000000000000000000000000000_0000000_1_0000_000
00000000000000000000000000000000000000000000000000_0000000_1_0000_000
10000000000000000000000000000000000000000000000000_0000001_1_0000_000
00001000000000000000000000000000000000000000000000_0000101_1_1000_001
10000000000000000000000000000000000000000000000000_0000001_1_0000_000
11000000000000000000000000000000000000000000000000_0000010_1_0000_000
00000000000000000000000000000000000000000000000000_0000000_1_0000_000
00000000000000000000000000000000000000000000000000_0000000_1_0000_000
00000000000000000000000000000000000000000000000000_0000000_1_0000_000
00000000000000000000000000000000000000000000000000_0000000_1_0000_000
00000000000000000000000000000000000000000000000000_0000000_1_0000_000
00000000000000000000000000000000000000000000000000_0000000_1_0000_000
00000000000000000000000000000000000000000000000000_0000000_1_0000_000
00000000000000000000000000000000000000000000000000_0000000_1_0000_000
00110010000000000000000000000000000000000000000000_0000111_1_0000_010
00011000000000000000000000000000000000000000000000_0000101_1_1000_001
10000000000000000000000000000000000000000000000000_0000001_1_0000_000
00010010000000000000000000000000000000000000000000_0000111_1_0000_000
00000000000000000000000000000000000000000000000000_0000000_1_0000_000
00000000000000000000000000000000000000000000000000_0000000_1_0000_000
00000000000000000000000000000000000000000000000000_0000000_1_0000_000
00000000000000000000000000000000000000000000000000_0000000_1_0000_000
00000000000000000000000000000000000000000000000000_0000000_1_0000_000
00000000000000000000000000000000000000000000000000_0000000_1_0000_000
00000000000000000000000000000000000000000000000000_0000000_1_0000_000
00000000000000000000000000000000000000000000000000_0000000_1_0000_000
00110110000000000000000000000000000000000000000000_0000111_1_0010_011
00011000000000000000000000000000000000000000000000_0000101_1_1000_001
00101100000000000000000000000000000000000000000000_0000110_1_0000_010
10011000000000000000000000000000000000000000000000_0000111_1_0000_000
00000000000000000000000000000000000000000000000000_0000000_1_0000_000
00000000000000000000000000000000000000000000000000_0000000_1_0000_000
00000000000000000000000000000000000000000000000000_0000000_1_0000_000
00000000000000000000000000000000000000000000000000_0000000_1_0000_000
00000000000000000000000000000000000000000000000000_0000000_1_0000_000
00000000000000000000000000000000000000000000000000_0000000_1_0000_000
00000000000000000000000000000000000000000000000000_0000000_1_0000_000
00000000000000000000000000000000000000000000000000_0000000_1_0000_000
00100000000000000000000000000000000000000000000000_0000110_1_1100_010
10000000000000000000000000000000000000000000000000_0000001_1_0000_000
00100100000000000000000000000000000000000000000000_0000110_1_1100_010
01000011011110000000000000000000000000000000000000_0001101_1_0000_000
00000000000000000000000000000000000000000000000000_0000000_1_0000_000
00000000000000000000000000000000000000000000000000_0000000_1_0000_000
00000000000000000000000000000000000000000000000000_0000000_1_0000_000
00000000000000000000000000000000000000000000000000_0000000_1_0000_000
00000000000000000000000000000000000000000000000000_0000000_1_0000_000
00000000000000000000000000000000000000000000000000_0000000_1_0000_000
00000000000000000000000000000000000000000000000000_0000000_1_0000_000
00000000000000000000000000000000000000000000000000_0000000_1_0000_000
10000000000000000000000000000000000000000000000000_0000001_1_0000_000
00000000000000000000000000000000000000000000000000_0000101_1_1000_001
10000000000000000000000000000000000000000000000000_0000001_1_0000_000
01001111010000000000000000000000000000000000000000_0001010_1_0000_000
00000000000000000000000000000000000000000000000000_0000000_1_0000_000
00000000000000000000000000000000000000000000000000_0000000_1_0000_000
00000000000000000000000000000000000000000000000000_0000000_1_0000_000
00000000000000000000000000000000000000000000000000_0000000_1_0000_000
00000000000000000000000000000000000000000000000000_0000000_1_0000_000
00000000000000000000000000000000000000000000000000_0000000_1_0000_000
00000000000000000000000000000000000000000000000000_0000000_1_0000_000
00000000000000000000000000000000000000000000000000_0000000_1_0000_000
10000000000000000000000000000000000000000000000000_0000001_1_0000_000
10000000000000000000000000000000000000000000000000_0000001_1_0000_000
00100100000000000000000000000000000000000000000000_0000110_1_0100_010
00101010000000000000000000000000000000000000000000_0000111_1_0000_000
00000000000000000000000000000000000000000000000000_0000000_1_0000_000
00000000000000000000000000000000000000000000000000_0000000_1_0000_000
00000000000000000000000000000000000000000000000000_0000000_1_0000_000
00000000000000000000000000000000000000000000000000_0000000_1_0000_000
00000000000000000000000000000000000000000000000000_0000000_1_0000_000
00000000000000000000000000000000000000000000000000_0000000_1_0000_000
00000000000000000000000000000000000000000000000000_0000000_1_0000_000
00000000000000000000000000000000000000000000000000_0000000_1_0000_000
01100111100110110000000000000000000000000000000000_0010000_1_0000_100
01001110000000000000000000000000000000000000000000_0001001_1_1000_001
00000000000000000000000000000000000000000000000000_0000101_1_1000_001
01110000111110011101000001100000000000000000000000_0011011_1_0000_000
00101100000000000000000000000000000000000000000000_0000110_1_0000_010
01011101011100000000000000000000000000000000000000_0001100_1_1000_011
00100000000000000000000000000000000000000000000000_0000110_1_1100_010
10010011000000000000000000000000000000000000000000_0001000_1_0000_000
00000000000000000000000000000000000000000000000000_0000000_1_0000_000
00000000000000000000000000000000000000000000000000_0000000_1_0000_000
00000000000000000000000000000000000000000000000000_0000000_1_0000_000
00000000000000000000000000000000000000000000000000_0000000_1_0000_000
01001000100000000000000000000000000000000000000000_0001001_1_1100_011
10000000000000000000000000000000000000000000000000_0000001_1_0000_000
10000000000000000000000000000000000000000000000000_0000001_1_0000_000
01010110111100000000000000000000000000000000000000_0001101_1_0000_000
00000000000000000000000000000000000000000000000000_0000000_1_0000_000
00000000000000000000000000000000000000000000000000_0000000_1_0000_000
00000000000000000000000000000000000000000000000000_0000000_1_0000_000
00000000000000000000000000000000000000000000000000_0000000_1_0000_000
00000000000000000000000000000000000000000000000000_0000000_1_0000_000
00000000000000000000000000000000000000000000000000_0000000_1_0000_000
00000000000000000000000000000000000000000000000000_0000000_1_0000_000
00000000000000000000000000000000000000000000000000_0000000_1_0000_000
00100000000000000000000000000000000000000000000000_0000110_1_1000_010
01100011100110000000000000000000000000000000000000_0010000_1_0000_011
00110110000000000000000000000000000000000000000000_0000111_1_1010_011
01111000110010100100000011100001010000000000000000_0100010_1_0000_000
10000000000000000000000000000000000000000000000000_0000001_1_0000_000
00111100000000000000000000000000000000000000000000_0000111_1_1111_100
10000000000000000000000000000000000000000000000000_0000001_1_0000_000
01000000011110000000000000000000000000000000000000_0001101_1_0000_000
00000000000000000000000000000000000000000000000000_0000000_1_0000_000
00000000000000000000000000000000000000000000000000_0000000_1_0000_000
00000000000000000000000000000000000000000000000000_0000000_1_0000_000
00000000000000000000000000000000000000000000000000_0000000_1_0000_000
10000000000000000000000000000000000000000000000000_0000001_1_0000_000
01000011000000000000000000000000000000000000000000_0001001_1_0100_010
01010000010000000000000000000000000000000000000000_0001010_1_0000_100
01011101001101000000000000000000000000000000000000_0010010_1_0000_000
10000000000000000000000000000000000000000000000000_0000001_1_0000_000
01000100000000000000000000000000000000000000000000_0001001_1_0000_010
00100100000000000000000000000000000000000000000000_0000110_1_1100_010
00110100110000000000000000000000000000000000000000_0001010_1_0000_000
10000000000000000000000000000000000000000000000000_0000001_1_0000_000
10000000000000000000000000000000000000000000000000_0000001_1_0000_000
00100100000000000000000000000000000000000000000000_0000110_1_1100_010
00110111000000000000000000000000000000000000000000_0001000_1_0000_000
01100001101000110000000000000000000000000000000000_0010000_1_1110_011
01110000110010010000000000000000000000000000000000_0010101_1_1010_011
01101000000000010000000000000000000000000000000000_0010000_1_1100_010
01000010111110111000000000000000000000000000000000_0010001_1_0000_000
00000000000000000000000000000000000000000000000000_0000000_1_0000_000
00000000000000000000000000000000000000000000000000_0000000_1_0000_000
00000000000000000000000000000000000000000000000000_0000000_1_0000_000
00000000000000000000000000000000000000000000000000_0000000_1_0000_000
00000000000000000000000000000000000000000000000000_0000000_1_0000_000
00000000000000000000000000000000000000000000000000_0000000_1_0000_000
00000000000000000000000000000000000000000000000000_0000000_1_0000_000
00000000000000000000000000000000000000000000000000_0000000_1_0000_000
00100100000000000000000000000000000000000000000000_0000110_1_1100_010
10000000000000000000000000000000000000000000000000_0000001_1_0000_000
01001100000000000000000000000000000000000000000000_0001001_1_0100_011
00100110100000000000000000000000000000000000000000_0001010_1_0000_000
00000000000000000000000000000000000000000000000000_0000000_1_0000_000
00000000000000000000000000000000000000000000000000_0000000_1_0000_000
00000000000000000000000000000000000000000000000000_0000000_1_0000_000
00000000000000000000000000000000000000000000000000_0000000_1_0000_000
00000000000000000000000000000000000000000000000000_0000000_1_0000_000
00000000000000000000000000000000000000000000000000_0000000_1_0000_000
00000000000000000000000000000000000000000000000000_0000000_1_0000_000
00000000000000000000000000000000000000000000000000_0000000_1_0000_000
00001000000000000000000000000000000000000000000000_0000101_1_0000_001
01000110100000000000000000000000000000000000000000_0001001_1_1000_010
01101000011000100000000000000000000000000000000000_0010000_1_0101_100
00010100101000000000000000000000000000000000000000_0001011_1_0000_000
10000000000000000000000000000000000000000000000000_0000001_1_0000_000
00101000000000000000000000000000000000000000000000_0000110_1_1100_010
10000000000000000000000000000000000000000000000000_0000001_1_0000_000
11100000000000000000000000000000000000000000000000_0000011_1_0000_000
00000000000000000000000000000000000000000000000000_0000000_1_0000_000
00000000000000000000000000000000000000000000000000_0000000_1_0000_000
00000000000000000000000000000000000000000000000000_0000000_1_0000_000
00000000000000000000000000000000000000000000000000_0000000_1_0000_000
01000000000000000000000000000000000000000000000000_0001001_1_0000_001
01001000100000000000000000000000000000000000000000_0001001_1_0110_011
01011011011000000000000000000000000000000000000000_0001011_1_1100_010
00010011110000000000000000000000000000000000000000_0001010_1_0000_000
00001000000000000000000000000000000000000000000000_0000101_1_1000_001
10000000000000000000000000000000000000000000000000_0000001_1_0000_000
00001000000000000000000000000000000000000000000000_0000101_1_1000_001
00110011000000000000000000000000000000000000000000_0001000_1_0000_000
10000000000000000000000000000000000000000000000000_0000001_1_0000_000
10000000000000000000000000000000000000000000000000_0000001_1_0000_000
00011000000000000000000000000000000000000000000000_0000101_1_0000_001
01000000000000000000000000000000000000000000000000_0001010_1_0000_000
10000000000000000000000000000000000000000000000000_0000001_1_0000_000
01000000100000000000000000000000000000000000000000_0001001_1_0000_001
01001010100000000000000000000000000000000000000000_0001001_1_0000_011
00100000000000000000000000000000000000000000000000_0001001_1_0000_000
00101100000000000000000000000000000000000000000000_0000110_1_1100_010
00011000000000000000000000000000000000000000000000_0000101_1_1000_001
10000000000000000000000000000000000000000000000000_0000001_1_0000_000
11110000000000000000000000000000000000000000000000_0000100_1_0000_000
00100100000000000000000000000000000000000000000000_0000110_1_1100_010
10000000000000000000000000000000000000000000000000_0000001_1_0000_000
10000000000000000000000000000000000000000000000000_0000001_1_0000_000
11100000000000000000000000000000000000000000000000_0000011_1_0000_000
00001000000000000000000000000000000000000000000000_0000101_1_0000_001
00010000000000000000000000000000000000000000000000_0000101_1_0000_001
00100100000000000000000000000000000000000000000000_0000110_1_0000_010
10000000000000000000000000000000000000000000000000_0000101_1_0000_000
00000000000000000000000000000000000000000000000000_0000000_1_0000_000
00000000000000000000000000000000000000000000000000_0000000_1_0000_000
00000000000000000000000000000000000000000000000000_0000000_1_0000_000
00000000000000000000000000000000000000000000000000_0000000_1_0000_000
00000000000000000000000000000000000000000000000000_0000000_1_0000_000
00000000000000000000000000000000000000000000000000_0000000_1_0000_000
00000000000000000000000000000000000000000000000000_0000000_1_0000_000
00000000000000000000000000000000000000000000000000_0000000_1_0000_000
01011110110100000000000000000000000000000000000000_0001101_1_1110_011
00101100000000000000000000000000000000000000000000_0000110_1_0000_010
00100100000000000000000000000000000000000000000000_0000110_1_0100_010
01000000011100010000000000000000000000000000000000_0010000_1_0000_000
00001000000000000000000000000000000000000000000000_0000101_1_1000_001
00100000000000000000000000000000000000000000000000_0000110_1_1100_010
00011000000000000000000000000000000000000000000000_0000101_1_0000_001
00100111000000000000000000000000000000000000000000_0001001_1_0000_000
00000000000000000000000000000000000000000000000000_0000000_1_0000_000
00000000000000000000000000000000000000000000000000_0000000_1_0000_000
00000000000000000000000000000000000000000000000000_0000000_1_0000_000
00000000000000000000000000000000000000000000000000_0000000_1_0000_000
00101000000000000000000000000000000000000000000000_0000110_1_0000_010
01011101011100000000000000000000000000000000000000_0001100_1_1111_100
00111000000000000000000000000000000000000000000000_0000111_1_1000_011
00101001111100000000000000000000000000000000000000_0001110_1_0000_000
00010000000000000000000000000000000000000000000000_0000101_1_0000_001
00101000000000000000000000000000000000000000000000_0000110_1_1100_010
10000000000000000000000000000000000000000000000000_0000001_1_0000_000
10110000000000000000000000000000000000000000000000_0000100_1_0000_000
00000000000000000000000000000000000000000000000000_0000000_1_0000_000
00000000000000000000000000000000000000000000000000_0000000_1_0000_000
00000000000000000000000000000000000000000000000000_0000000_1_0000_000
00000000000000000000000000000000000000000000000000_0000000_1_0000_000
00110110000000000000000000000000000000000000000000_0000111_1_0010_011
00010000000000000000000000000000000000000000000000_0000101_1_1000_001
01000100100000000000000000000000000000000000000000_0001001_1_0000_010
00010011000000000000000000000000000000000000000000_0001010_1_0000_000
00000000000000000000000000000000000000000000000000_0000000_1_0000_000
00000000000000000000000000000000000000000000000000_0000000_1_0000_000
00000000000000000000000000000000000000000000000000_0000000_1_0000_000
00000000000000000000000000000000000000000000000000_0000000_1_0000_000
00000000000000000000000000000000000000000000000000_0000000_1_0000_000
00000000000000000000000000000000000000000000000000_0000000_1_0000_000
00000000000000000000000000000000000000000000000000_0000000_1_0000_000
00000000000000000000000000000000000000000000000000_0000000_1_0000_000
10000000000000000000000000000000000000000000000000_0000001_1_0000_000
00000000000000000000000000000000000000000000000000_0000101_1_1000_001
00010000000000000000000000000000000000000000000000_0000101_1_1000_001
11100000000000000000000000000000000000000000000000_0000011_1_0000_000
00000000000000000000000000000000000000000000000000_0000000_1_0000_000
00000000000000000000000000000000000000000000000000_0000000_1_0000_000
00000000000000000000000000000000000000000000000000_0000000_1_0000_000
00000000000000000000000000000000000000000000000000_0000000_1_0000_000
00000000000000000000000000000000000000000000000000_0000000_1_0000_000
00000000000000000000000000000000000000000000000000_0000000_1_0000_000
00000000000000000000000000000000000000000000000000_0000000_1_0000_000
00000000000000000000000000000000000000000000000000_0000000_1_0000_000
01011111000111000000000000000000000000000000000000_0001110_1_0000_011
01110001100001000001000000000000000000000000000000_0010101_1_0000_011
00100000000000000000000000000000000000000000000000_0000110_1_1000_010
10000001000000000000000000000000000000000000000000_0001001_1_0000_000
00000000000000000000000000000000000000000000000000_0000000_1_0000_000
00000000000000000000000000000000000000000000000000_0000000_1_0000_000
00000000000000000000000000000000000000000000000000_0000000_1_0000_000
00000000000000000000000000000000000000000000000000_0000000_1_0000_000
10000000000000000000000000000000000000000000000000_0000001_1_0000_000
00011000000000000000000000000000000000000000000000_0000101_1_0000_001
10000000000000000000000000000000000000000000000000_0000001_1_0000_000
10000000000000000000000000000000000000000000000000_0000010_1_0000_000
10000000000000000000000000000000000000000000000000_0000001_1_0000_000
10000000000000000000000000000000000000000000000000_0000001_1_0000_000
00011000000000000000000000000000000000000000000000_0000101_1_0000_001
01000001000000000000000000000000000000000000000000_0001010_1_0000_000
00000000000000000000000000000000000000000000000000_0000000_1_0000_000
00000000000000000000000000000000000000000000000000_0000000_1_0000_000
00000000000000000000000000000000000000000000000000_0000000_1_0000_000
00000000000000000000000000000000000000000000000000_0000000_1_0000_000
00000000000000000000000000000000000000000000000000_0000000_1_0000_000
00000000000000000000000000000000000000000000000000_0000000_1_0000_000
00000000000000000000000000000000000000000000000000_0000000_1_0000_000
00000000000000000000000000000000000000000000000000_0000000_1_0000_000
01100011011000110000000000000000000000000000000000_0010000_1_1100_100
01010100010000000000000000000000000000000000000000_0001010_1_0000_010
01010111100000000000000000000000000000000000000000_0001010_1_1110_011
00101110000111000000000000000000000000000000000000_0001110_1_0000_000
00101100000000000000000000000000000000000000000000_0000110_1_1100_010
00000000000000000000000000000000000000000000000000_0000101_1_0000_001
10000000000000000000000000000000000000000000000000_0000001_1_0000_000
01000011111000000000000000000000000000000000000000_0001100_1_0000_000
10000000000000000000000000000000000000000000000000_0000001_1_0000_000
00000000000000000000000000000000000000000000000000_0000101_1_0000_001
10000000000000000000000000000000000000000000000000_0000001_1_0000_000
10000000000000000000000000000000000000000000000000_0000010_1_0000_000
00011000000000000000000000000000000000000000000000_0000101_1_0000_001
01010101000000000000000000000000000000000000000000_0001010_1_0100_010
00000000000000000000000000000000000000000000000000_0000101_1_1000_001
01100100010000000011000000000000000000000000000000_0010100_1_0000_000
00000000000000000000000000000000000000000000000000_0000000_1_0000_000
00000000000000000000000000000000000000000000000000_0000000_1_0000_000
00000000000000000000000000000000000000000000000000_0000000_1_0000_000
00000000000000000000000000000000000000000000000000_0000000_1_0000_000
00000000000000000000000000000000000000000000000000_0000000_1_0000_000
00000000000000000000000000000000000000000000000000_0000000_1_0000_000
00000000000000000000000000000000000000000000000000_0000000_1_0000_000
00000000000000000000000000000000000000000000000000_0000000_1_0000_000
10000000000000000000000000000000000000000000000000_0000001_1_0000_000
10000000000000000000000000000000000000000000000000_0000001_1_0000_000
00011000000000000000000000000000000000000000000000_0000101_1_1000_001
11000000000000000000000000000000000000000000000000_0000010_1_0000_000
00000000000000000000000000000000000000000000000000_0000000_1_0000_000
00000000000000000000000000000000000000000000000000_0000000_1_0000_000
00000000000000000000000000000000000000000000000000_0000000_1_0000_000
00000000000000000000000000000000000000000000000000_0000000_1_0000_000
00000000000000000000000000000000000000000000000000_0000000_1_0000_000
00000000000000000000000000000000000000000000000000_0000000_1_0000_000
00000000000000000000000000000000000000000000000000_0000000_1_0000_000
00000000000000000000000000000000000000000000000000_0000000_1_0000_000
10000000000000000000000000000000000000000000000000_0000001_1_0000_000
10000000000000000000000000000000000000000000000000_0000001_1_0000_000
00101000000000000000000000000000000000000000000000_0000110_1_0000_010
01001101100000000000000000000000000000000000000000_0001011_1_0000_000
00000000000000000000000000000000000000000000000000_0000000_1_0000_000
00000000000000000000000000000000000000000000000000_0000000_1_0000_000
00000000000000000000000000000000000000000000000000_0000000_1_0000_000
00000000000000000000000000000000000000000000000000_0000000_1_0000_000
00000000000000000000000000000000000000000000000000_0000000_1_0000_000
00000000000000000000000000000000000000000000000000_0000000_1_0000_000
00000000000000000000000000000000000000000000000000_0000000_1_0000_000
00000000000000000000000000000000000000000000000000_0000000_1_0000_000
10000000000000000000000000000000000000000000000000_0000001_1_0000_000
00100000000000000000000000000000000000000000000000_0000110_1_0000_010
00111010000000000000000000000000000000000000000000_0000111_1_0000_011
01000001100000000000000000000000000000000000000000_0001110_1_0000_000
10000000000000000000000000000000000000000000000000_0000001_1_0000_000
10000000000000000000000000000000000000000000000000_0000001_1_0000_000
10000000000000000000000000000000000000000000000000_0000001_1_0000_000
01001101100000000000000000000000000000000000000000_0001001_1_0000_000
10000000000000000000000000000000000000000000000000_0000001_1_0000_000
10000000000000000000000000000000000000000000000000_0000001_1_0000_000
00111100000000000000000000000000000000000000000000_0000111_1_1111_100
00111110011110000000000000000000000000000000000000_0001101_1_0000_000
00101100000000000000000000000000000000000000000000_0000110_1_0100_010
01000000100000000000000000000000000000000000000000_0001001_1_1000_001
00001000000000000000000000000000000000000000000000_0000101_1_1000_001
00110001110000000000000000000000000000000000000000_0001010_1_0000_000
00000000000000000000000000000000000000000000000000_0000000_1_0000_000
00000000000000000000000000000000000000000000000000_0000000_1_0000_000
00000000000000000000000000000000000000000000000000_0000000_1_0000_000
00000000000000000000000000000000000000000000000000_0000000_1_0000_000
00100000000000000000000000000000000000000000000000_0000110_1_0000_010
00101000000000000000000000000000000000000000000000_0000110_1_0000_010
10000000000000000000000000000000000000000000000000_0000001_1_0000_000
10000000000000000000000000000000000000000000000000_0000101_1_0000_000
00111100000000000000000000000000000000000000000000_0000111_1_1100_100
01001000000000000000000000000000000000000000000000_0001001_1_0100_011
00111010000000000000000000000000000000000000000000_0000111_1_0010_011
01101101111110101100010001000000000000000000000000_0011010_1_0000_000
00000000000000000000000000000000000000000000000000_0000000_1_0000_000
00000000000000000000000000000000000000000000000000_0000000_1_0000_000
00000000000000000000000000000000000000000000000000_0000000_1_0000_000
00000000000000000000000000000000000000000000000000_0000000_1_0000_000
00000000000000000000000000000000000000000000000000_0000000_1_0000_000
00000000000000000000000000000000000000000000000000_0000000_1_0000_000
00000000000000000000000000000000000000000000000000_0000000_1_0000_000
00000000000000000000000000000000000000000000000000_0000000_1_0000_000
00010000000000000000000000000000000000000000000000_0000101_1_1000_001
01000100100000000000000000000000000000000000000000_0001001_1_0000_010
00101100000000000000000000000000000000000000000000_0000110_1_0100_010
01101011101100011000100000000000000000000000000000_0010101_1_0000_000
00000000000000000000000000000000000000000000000000_0000000_1_0000_000
00000000000000000000000000000000000000000000000000_0000000_1_0000_000
00000000000000000000000000000000000000000000000000_0000000_1_0000_000
00000000000000000000000000000000000000000000000000_0000000_1_0000_000
00000000000000000000000000000000000000000000000000_0000000_1_0000_000
00000000000000000000000000000000000000000000000000_0000000_1_0000_000
00000000000000000000000000000000000000000000000000_0000000_1_0000_000
00000000000000000000000000000000000000000000000000_0000000_1_0000_000
01000011100000000000000000000000000000000000000000_0001001_1_1100_010
10000000000000000000000000000000000000000000000000_0000001_1_0000_000
00011000000000000000000000000000000000000000000000_0000101_1_0000_001
01000011011000000000000000000000000000000000000000_0001100_1_0000_000
00000000000000000000000000000000000000000000000000_0000000_1_0000_000
00000000000000000000000000000000000000000000000000_0000000_1_0000_000
00000000000000000000000000000000000000000000000000_0000000_1_0000_000
00000000000000000000000000000000000000000000000000_0000000_1_0000_000
00000000000000000000000000000000000000000000000000_0000000_1_0000_000
00000000000000000000000000000000000000000000000000_0000000_1_0000_000
00000000000000000000000000000000000000000000000000_0000000_1_0000_000
00000000000000000000000000000000000000000000000000_0000000_1_0000_000
00001000000000000000000000000000000000000000000000_0000101_1_1000_001
00010000000000000000000000000000000000000000000000_0000101_1_0000_001
00001000000000000000000000000000000000000000000000_0000101_1_1000_001
01010111011010000000000000000000000000000000000000_0001101_1_0000_000
00000000000000000000000000000000000000000000000000_0000000_1_0000_000
00000000000000000000000000000000000000000000000000_0000000_1_0000_000
00000000000000000000000000000000000000000000000000_0000000_1_0000_000
00000000000000000000000000000000000000000000000000_0000000_1_0000_000
00000000000000000000000000000000000000000000000000_0000000_1_0000_000
00000000000000000000000000000000000000000000000000_0000000_1_0000_000
00000000000000000000000000000000000000000000000000_0000000_1_0000_000
00000000000000000000000000000000000000000000000000_0000000_1_0000_000
00110010000000000000000000000000000000000000000000_0000111_1_1000_010
00111100000000000000000000000000000000000000000000_0000111_1_0001_100
01010100010000000000000000000000000000000000000000_0001010_1_0100_010
11000010100000000000000000000000000000000000000000_0001001_1_0000_000
00000000000000000000000000000000000000000000000000_0000000_1_0000_000
00000000000000000000000000000000000000000000000000_0000000_1_0000_000
00000000000000000000000000000000000000000000000000_0000000_1_0000_000
00000000000000000000000000000000000000000000000000_0000000_1_0000_000
10000000000000000000000000000000000000000000000000_0000001_1_0000_000
00101100000000000000000000000000000000000000000000_0000110_1_1100_010
00111100000000000000000000000000000000000000000000_0000111_1_1111_100
01011011100111111000000000000000000000000000000000_0010001_1_0000_000
00001000000000000000000000000000000000000000000000_0000101_1_1000_001
00010000000000000000000000000000000000000000000000_0000101_1_1000_001
10000000000000000000000000000000000000000000000000_0000001_1_0000_000
11100000000000000000000000000000000000000000000000_0000011_1_0000_000
00000000000000000000000000000000000000000000000000_0000000_1_0000_000
00000000000000000000000000000000000000000000000000_0000000_1_0000_000
00000000000000000000000000000000000000000000000000_0000000_1_0000_000
00000000000000000000000000000000000000000000000000_0000000_1_0000_000
00000000000000000000000000000000000000000000000000_0000000_1_0000_000
00000000000000000000000000000000000000000000000000_0000000_1_0000_000
00000000000000000000000000000000000000000000000000_0000000_1_0000_000
00000000000000000000000000000000000000000000000000_0000000_1_0000_000
00110010000000000000000000000000000000000000000000_0000111_1_0000_010
00111000000000000000000000000000000000000000000000_0000111_1_1100_011
00011000000000000000000000000000000000000000000000_0000101_1_1000_001
01001000100110100000000000000000000000000000000000_0001111_1_0000_000
00000000000000000000000000000000000000000000000000_0000000_1_0000_000
00000000000000000000000000000000000000000000000000_0000000_1_0000_000
00000000000000000000000000000000000000000000000000_0000000_1_0000_000
00000000000000000000000000000000000000000000000000_0000000_1_0000_000
10000000000000000000000000000000000000000000000000_0000001_1_0000_000
00100100000000000000000000000000000000000000000000_0000110_1_1100_010
10000000000000000000000000000000000000000000000000_0000001_1_0000_000
00011100000000000000000000000000000000000000000000_0000110_1_0000_000
00000000000000000000000000000000000000000000000000_0000101_1_1000_001
00011000000000000000000000000000000000000000000000_0000101_1_1000_001
00100000000000000000000000000000000000000000000000_0000110_1_1100_010
00111001111000000000000000000000000000000000000000_0001011_1_0000_000
10000000000000000000000000000000000000000000000000_0000001_1_0000_000
10000000000000000000000000000000000000000000000000_0000001_1_0000_000
10000000000000000000000000000000000000000000000000_0000001_1_0000_000
00010000000000000000000000000000000000000000000000_0000100_1_0000_000
10000000000000000000000000000000000000000000000000_0000001_1_0000_000
10000000000000000000000000000000000000000000000000_0000001_1_0000_000
00001000000000000000000000000000000000000000000000_0000101_1_1000_001
00110010000000000000000000000000000000000000000000_0000111_1_0000_000
01010100010000000000000000000000000000000000000000_0001010_1_0100_010
00001000000000000000000000000000000000000000000000_0000101_1_0000_001
01001001000000000000000000000000000000000000000000_0001001_1_0000_001
01100100000100000100000000000000000000000000000000_0010100_1_0000_000
00000000000000000000000000000000000000000000000000_0000000_1_0000_000
00000000000000000000000000000000000000000000000000_0000000_1_0000_000
00000000000000000000000000000000000000000000000000_0000000_1_0000_000
00000000000000000000000000000000000000000000000000_0000000_1_0000_000
00000000000000000000000000000000000000000000000000_0000000_1_0000_000
00000000000000000000000000000000000000000000000000_0000000_1_0000_000
00000000000000000000000000000000000000000000000000_0000000_1_0000_000
00000000000000000000000000000000000000000000000000_0000000_1_0000_000
01011000011000000000000000000000000000000000000000_0001011_1_0011_100
01011101101000000000000000000000000000000000000000_0001100_1_0000_011
01100111000101010000000000000000000000000000000000_0010000_1_0101_100
01001011100110000101000000000000000000000000000000_0010100_1_0000_000
00011000000000000000000000000000000000000000000000_0000101_1_1000_001
10000000000000000000000000000000000000000000000000_0000001_1_0000_000
00000000000000000000000000000000000000000000000000_0000101_1_0000_001
01001101010000000000000000000000000000000000000000_0001011_1_0000_000
00000000000000000000000000000000000000000000000000_0000000_1_0000_000
00000000000000000000000000000000000000000000000000_0000000_1_0000_000
00000000000000000000000000000000000000000000000000_0000000_1_0000_000
00000000000000000000000000000000000000000000000000_0000000_1_0000_000
01100000011110000000000000000000000000000000000000_0010000_1_1000_010
10000000000000000000000000000000000000000000000000_0000001_1_0000_000
10000000000000000000000000000000000000000000000000_0000001_1_0000_000
01010011001000000000000000000000000000000000000000_0001100_1_0000_000
00000000000000000000000000000000000000000000000000_0000000_1_0000_000
00000000000000000000000000000000000000000000000000_0000000_1_0000_000
00000000000000000000000000000000000000000000000000_0000000_1_0000_000
00000000000000000000000000000000000000000000000000_0000000_1_0000_000
00000000000000000000000000000000000000000000000000_0000000_1_0000_000
00000000000000000000000000000000000000000000000000_0000000_1_0000_000
00000000000000000000000000000000000000000000000000_0000000_1_0000_000
00000000000000000000000000000000000000000000000000_0000000_1_0000_000
10000000000000000000000000000000000000000000000000_0000001_1_0000_000
01000001100000000000000000000000000000000000000000_0001001_1_0000_001
01001011100000000000000000000000000000000000000000_0001001_1_1110_011
10111000000000000000000000000000000000000000000000_0000101_1_0000_000
00000000000000000000000000000000000000000000000000_0000000_1_0000_000
00000000000000000000000000000000000000000000000000_0000000_1_0000_000
00000000000000000000000000000000000000000000000000_0000000_1_0000_000
00000000000000000000000000000000000000000000000000_0000000_1_0000_000
00000000000000000000000000000000000000000000000000_0000000_1_0000_000
00000000000000000000000000000000000000000000000000_0000000_1_0000_000
00000000000000000000000000000000000000000000000000_0000000_1_0000_000
00000000000000000000000000000000000000000000000000_0000000_1_0000_000
10000000000000000000000000000000000000000000000000_0000001_1_0000_000
01000011100000000000000000000000000000000000000000_0001001_1_1100_010
00010000000000000000000000000000000000000000000000_0000101_1_1000_001
11110000000000000000000000000000000000000000000000_0000100_1_0000_000
00000000000000000000000000000000000000000000000000_0000000_1_0000_000
00000000000000000000000000000000000000000000000000_0000000_1_0000_000
00000000000000000000000000000000000000000000000000_0000000_1_0000_000
00000000000000000000000000000000000000000000000000_0000000_1_0000_000
00000000000000000000000000000000000000000000000000_0000000_1_0000_000
00000000000000000000000000000000000000000000000000_0000000_1_0000_000
00000000000000000000000000000000000000000000000000_0000000_1_0000_000
00000000000000000000000000000000000000000000000000_0000000_1_0000_000
00110000000000000000000000000000000000000000000000_0000111_1_1000_010
01000010100000000000000000000000000000000000000000_0001001_1_0000_010
00110000000000000000000000000000000000000000000000_0000111_1_1000_010
01101111000001011000100000000000000000000000000000_0010110_1_0000_000
00000000000000000000000000000000000000000000000000_0000000_1_0000_000
00000000000000000000000000000000000000000000000000_0000000_1_0000_000
00000000000000000000000000000000000000000000000000_0000000_1_0000_000
00000000000000000000000000000000000000000000000000_0000000_1_0000_000
00000000000000000000000000000000000000000000000000_0000000_1_0000_000
00000000000000000000000000000000000000000000000000_0000000_1_0000_000
00000000000000000000000000000000000000000000000000_0000000_1_0000_000
00000000000000000000000000000000000000000000000000_0000000_1_0000_000
01010110100000000000000000000000000000000000000000_0001010_1_0000_011
00101000000000000000000000000000000000000000000000_0000110_1_0000_010
01010110000000000000000000000000000000000000000000_0001010_1_1000_011
10000010000000000000000000000000000000000000000000_0001001_1_0000_000
00000000000000000000000000000000000000000000000000_0000000_1_0000_000
00000000000000000000000000000000000000000000000000_0000000_1_0000_000
00000000000000000000000000000000000000000000000000_0000000_1_0000_000
00000000000000000000000000000000000000000000000000_0000000_1_0000_000
10000000000000000000000000000000000000000000000000_0000001_1_0000_000
00001000000000000000000000000000000000000000000000_0000101_1_1000_001
00100000000000000000000000000000000000000000000000_0000110_1_1100_010
00110011100000000000000000000000000000000000000000_0001001_1_0000_000
01011101100000000000000000000000000000000000000000_0001100_1_0000_010
00111010000000000000000000000000000000000000000000_0000111_1_0100_011
00011000000000000000000000000000000000000000000000_0000101_1_0000_001
10001000000000000000000000000000000000000000000000_0000111_1_0000_000
10000000000000000000000000000000000000000000000000_0000001_1_0000_000
10000000000000000000000000000000000000000000000000_0000001_1_0000_000
10000000000000000000000000000000000000000000000000_0000001_1_0000_000
01000001000000000000000000000000000000000000000000_0001001_1_0000_000
00000000000000000000000000000000000000000000000000_0000000_1_0000_000
00000000000000000000000000000000000000000000000000_0000000_1_0000_000
00000000000000000000000000000000000000000000000000_0000000_1_0000_000
00000000000000000000000000000000000000000000000000_0000000_1_0000_000
01010100100000000000000000000000000000000000000000_0001010_1_1100_010
00010000000000000000000000000000000000000000000000_0000101_1_1000_001
01011010000000000000000000000000000000000000000000_0001011_1_0010_011
11110010000000000000000000000000000000000000000000_0000111_1_0000_000
00000000000000000000000000000000000000000000000000_0000000_1_0000_000
00000000000000000000000000000000000000000000000000_0000000_1_0000_000
00000000000000000000000000000000000000000000000000_0000000_1_0000_000
00000000000000000000000000000000000000000000000000_0000000_1_0000_000
10000000000000000000000000000000000000000000000000_0000001_1_0000_000
00010000000000000000000000000000000000000000000000_0000101_1_1000_001
10000000000000000000000000000000000000000000000000_0000001_1_0000_000
00011000000000000000000000000000000000000000000000_0000101_1_0000_000
00111000000000000000000000000000000000000000000000_0000111_1_0010_011
01011001100000000000000000000000000000000000000000_0001011_1_1110_011
00101000000000000000000000000000000000000000000000_0000110_1_0000_010
01101101000100000011110000000000000000000000000000_0011000_1_0000_000
00000000000000000000000000000000000000000000000000_0000000_1_0000_000
00000000000000000000000000000000000000000000000000_0000000_1_0000_000
00000000000000000000000000000000000000000000000000_0000000_1_0000_000
00000000000000000000000000000000000000000000000000_0000000_1_0000_000
00000000000000000000000000000000000000000000000000_0000000_1_0000_000
00000000000000000000000000000000000000000000000000_0000000_1_0000_000
00000000000000000000000000000000000000000000000000_0000000_1_0000_000
00000000000000000000000000000000000000000000000000_0000000_1_0000_000
00110110000000000000000000000000000000000000000000_0000111_1_1110_011
01011100011100000000000000000000000000000000000000_0001100_1_1110_011
01011111110111000000000000000000000000000000000000_0001111_1_1111_100
01101001001011011111111111000000000000000000000000_0011010_1_0000_000
00000000000000000000000000000000000000000000000000_0000000_1_0000_000
00000000000000000000000000000000000000000000000000_0000000_1_0000_000
00000000000000000000000000000000000000000000000000_0000000_1_0000_000
00000000000000000000000000000000000000000000000000_0000000_1_0000_000
00000000000000000000000000000000000000000000000000_0000000_1_0000_000
00000000000000000000000000000000000000000000000000_0000000_1_0000_000
00000000000000000000000000000000000000000000000000_0000000_1_0000_000
00000000000000000000000000000000000000000000000000_0000000_1_0000_000
10000000000000000000000000000000000000000000000000_0000001_1_0000_000
00001000000000000000000000000000000000000000000000_0000101_1_1000_001
01000001000000000000000000000000000000000000000000_0001001_1_1000_001
01011110101001100000000000000000000000000000000000_0001111_1_0000_000
10000000000000000000000000000000000000000000000000_0000001_1_0000_000
10000000000000000000000000000000000000000000000000_0000001_1_0000_000
00100000000000000000000000000000000000000000000000_0000110_1_1100_010
11100000000000000000000000000000000000000000000000_0000011_1_0000_000
00000000000000000000000000000000000000000000000000_0000000_1_0000_000
00000000000000000000000000000000000000000000000000_0000000_1_0000_000
00000000000000000000000000000000000000000000000000_0000000_1_0000_000
00000000000000000000000000000000000000000000000000_0000000_1_0000_000
10000000000000000000000000000000000000000000000000_0000001_1_0000_000
00011000000000000000000000000000000000000000000000_0000101_1_0000_001
10000000000000000000000000000000000000000000000000_0000001_1_0000_000
01001000000000000000000000000000000000000000000000_0001010_1_0000_000
00000000000000000000000000000000000000000000000000_0000000_1_0000_000
00000000000000000000000000000000000000000000000000_0000000_1_0000_000
00000000000000000000000000000000000000000000000000_0000000_1_0000_000
00000000000000000000000000000000000000000000000000_0000000_1_0000_000
00000000000000000000000000000000000000000000000000_0000000_1_0000_000
00000000000000000000000000000000000000000000000000_0000000_1_0000_000
00000000000000000000000000000000000000000000000000_0000000_1_0000_000
00000000000000000000000000000000000000000000000000_0000000_1_0000_000
10000000000000000000000000000000000000000000000000_0000001_1_0000_000
00010000000000000000000000000000000000000000000000_0000101_1_1000_001
00010000000000000000000000000000000000000000000000_0000101_1_0000_001
01000000010000000000000000000000000000000000000000_0001011_1_0000_000
00000000000000000000000000000000000000000000000000_0000000_1_0000_000
00000000000000000000000000000000000000000000000000_0000000_1_0000_000
00000000000000000000000000000000000000000000000000_0000000_1_0000_000
00000000000000000000000000000000000000000000000000_0000000_1_0000_000
00000000000000000000000000000000000000000000000000_0000000_1_0000_000
00000000000000000000000000000000000000000000000000_0000000_1_0000_000
00000000000000000000000000000000000000000000000000_0000000_1_0000_000
00000000000000000000000000000000000000000000000000_0000000_1_0000_000
10000000000000000000000000000000000000000000000000_0000001_1_0000_000
01001000100000000000000000000000000000000000000000_0001001_1_1110_011
00001000000000000000000000000000000000000000000000_0000101_1_1000_001
01011000011111100000000000000000000000000000000000_0001111_1_0000_000
00000000000000000000000000000000000000000000000000_0000000_1_0000_000
00000000000000000000000000000000000000000000000000_0000000_1_0000_000
00000000000000000000000000000000000000000000000000_0000000_1_0000_000
00000000000000000000000000000000000000000000000000_0000000_1_0000_000
00000000000000000000000000000000000000000000000000_0000000_1_0000_000
00000000000000000000000000000000000000000000000000_0000000_1_0000_000
00000000000000000000000000000000000000000000000000_0000000_1_0000_000
00000000000000000000000000000000000000000000000000_0000000_1_0000_000
10000000000000000000000000000000000000000000000000_0000001_1_0000_000
01000011000000000000000000000000000000000000000000_0001001_1_1000_010
00000000000000000000000000000000000000000000000000_0000101_1_0000_001
01010010101000000000000000000000000000000000000000_0001101_1_0000_000
00000000000000000000000000000000000000000000000000_0000000_1_0000_000
00000000000000000000000000000000000000000000000000_0000000_1_0000_000
00000000000000000000000000000000000000000000000000_0000000_1_0000_000
00000000000000000000000000000000000000000000000000_0000000_1_0000_000
00000000000000000000000000000000000000000000000000_0000000_1_0000_000
00000000000000000000000000000000000000000000000000_0000000_1_0000_000
00000000000000000000000000000000000000000000000000_0000000_1_0000_000
00000000000000000000000000000000000000000000000000_0000000_1_0000_000
10000000000000000000000000000000000000000000000000_0000001_1_0000_000
00011000000000000000000000000000000000000000000000_0000101_1_1000_001
10000000000000000000000000000000000000000000000000_0000001_1_0000_000
01000010110000000000000000000000000000000000000000_0001010_1_0000_000
00000000000000000000000000000000000000000000000000_0000000_1_0000_000
00000000000000000000000000000000000000000000000000_0000000_1_0000_000
00000000000000000000000000000000000000000000000000_0000000_1_0000_000
00000000000000000000000000000000000000000000000000_0000000_1_0000_000
00000000000000000000000000000000000000000000000000_0000000_1_0000_000
00000000000000000000000000000000000000000000000000_0000000_1_0000_000
00000000000000000000000000000000000000000000000000_0000000_1_0000_000
00000000000000000000000000000000000000000000000000_0000000_1_0000_000
00000000000000000000000000000000000000000000000000_0000101_1_0000_001
01001100000000000000000000000000000000000000000000_0001001_1_1110_011
00011000000000000000000000000000000000000000000000_0000101_1_1000_001
01100010000100000111100000000000000000000000000000_0010101_1_0000_000
00000000000000000000000000000000000000000000000000_0000000_1_0000_000
00000000000000000000000000000000000000000000000000_0000000_1_0000_000
00000000000000000000000000000000000000000000000000_0000000_1_0000_000
00000000000000000000000000000000000000000000000000_0000000_1_0000_000
00000000000000000000000000000000000000000000000000_0000000_1_0000_000
00000000000000000000000000000000000000000000000000_0000000_1_0000_000
00000000000000000000000000000000000000000000000000_0000000_1_0000_000
00000000000000000000000000000000000000000000000000_0000000_1_0000_000
01101111001101000000000000000000000000000000000000_0010000_1_1111_100
01110100010000010000000000000000000000000000000000_0010101_1_0010_011
01011010110000000000000000000000000000000000000000_0001011_1_0011_100
01000101111110010011000000000000000000000000000000_0010100_1_0000_000
00000000000000000000000000000000000000000000000000_0000000_1_0000_000
00000000000000000000000000000000000000000000000000_0000000_1_0000_000
00000000000000000000000000000000000000000000000000_0000000_1_0000_000
00000000000000000000000000000000000000000000000000_0000000_1_0000_000
00000000000000000000000000000000000000000000000000_0000000_1_0000_000
00000000000000000000000000000000000000000000000000_0000000_1_0000_000
00000000000000000000000000000000000000000000000000_0000000_1_0000_000
00000000000000000000000000000000000000000000000000_0000000_1_0000_000
01000010100000000000000000000000000000000000000000_0001001_1_0000_010
01001011000000000000000000000000000000000000000000_0001001_1_1100_011
01011000101000000000000000000000000000000000000000_0001011_1_1100_011
01011010110001101100000000000000000000000000000000_0010011_1_0000_000
00000000000000000000000000000000000000000000000000_0000000_1_0000_000
00000000000000000000000000000000000000000000000000_0000000_1_0000_000
00000000000000000000000000000000000000000000000000_0000000_1_0000_000
00000000000000000000000000000000000000000000000000_0000000_1_0000_000
00000000000000000000000000000000000000000000000000_0000000_1_0000_000
00000000000000000000000000000000000000000000000000_0000000_1_0000_000
00000000000000000000000000000000000000000000000000_0000000_1_0000_000
00000000000000000000000000000000000000000000000000_0000000_1_0000_000
10000000000000000000000000000000000000000000000000_0000001_1_0000_000
01000001100000000000000000000000000000000000000000_0001001_1_1000_001
01110001101110010100000000000000000000000000000000_0010101_1_1111_100
01101001011001101111100000000000000000000000000000_0010101_1_0000_000
00000000000000000000000000000000000000000000000000_0000000_1_0000_000
00000000000000000000000000000000000000000000000000_0000000_1_0000_000
00000000000000000000000000000000000000000000000000_0000000_1_0000_000
00000000000000000000000000000000000000000000000000_0000000_1_0000_000
10000000000000000000000000000000000000000000000000_0000001_1_0000_000
10000000000000000000000000000000000000000000000000_0000001_1_0000_000
10000000000000000000000000000000000000000000000000_0000001_1_0000_000
01000000100000000000000000000000000000000000000000_0001001_1_0000_000
00001000000000000000000000000000000000000000000000_0000101_1_0000_001
10000000000000000000000000000000000000000000000000_0000001_1_0000_000
10000000000000000000000000000000000000000000000000_0000001_1_0000_000
10000000000000000000000000000000000000000000000000_0000010_1_0000_000
00000000000000000000000000000000000000000000000000_0000000_1_0000_000
00000000000000000000000000000000000000000000000000_0000000_1_0000_000
00000000000000000000000000000000000000000000000000_0000000_1_0000_000
00000000000000000000000000000000000000000000000000_0000000_1_0000_000
10000000000000000000000000000000000000000000000000_0000001_1_0000_000
10000000000000000000000000000000000000000000000000_0000001_1_0000_000
10000000000000000000000000000000000000000000000000_0000001_1_0000_000
01000000100000000000000000000000000000000000000000_0001001_1_0000_000
00111100000000000000000000000000000000000000000000_0000111_1_1111_100
00101000000000000000000000000000000000000000000000_0000110_1_0000_010
00001000000000000000000000000000000000000000000000_0000101_1_0000_001
11111000000000000000000000000000000000000000000000_0001000_1_0000_000
00000000000000000000000000000000000000000000000000_0000000_1_0000_000
00000000000000000000000000000000000000000000000000_0000000_1_0000_000
00000000000000000000000000000000000000000000000000_0000000_1_0000_000
00000000000000000000000000000000000000000000000000_0000000_1_0000_000
00000000000000000000000000000000000000000000000000_0000000_1_0000_000
00000000000000000000000000000000000000000000000000_0000000_1_0000_000
00000000000000000000000000000000000000000000000000_0000000_1_0000_000
00000000000000000000000000000000000000000000000000_0000000_1_0000_000
00011000000000000000000000000000000000000000000000_0000101_1_1000_001
00101000000000000000000000000000000000000000000000_0000110_1_1100_010
10000000000000000000000000000000000000000000000000_0000001_1_0000_000
01000011011100000000000000000000000000000000000000_0001100_1_0000_000
00000000000000000000000000000000000000000000000000_0000000_1_0000_000
00000000000000000000000000000000000000000000000000_0000000_1_0000_000
00000000000000000000000000000000000000000000000000_0000000_1_0000_000
00000000000000000000000000000000000000000000000000_0000000_1_0000_000
10000000000000000000000000000000000000000000000000_0000001_1_0000_000
10000000000000000000000000000000000000000000000000_0000001_1_0000_000
00100100000000000000000000000000000000000000000000_0000110_1_1100_010
11100000000000000000000000000000000000000000000000_0000011_1_0000_000
10000000000000000000000000000000000000000000000000_0000001_1_0000_000
00000000000000000000000000000000000000000000000000_0000101_1_1000_001
01011001110000000000000000000000000000000000000000_0001011_1_1110_011
01110111011101001110111110000000000000000000000000_0011001_1_0000_000
10000000000000000000000000000000000000000000000000_0000001_1_0000_000
00010000000000000000000000000000000000000000000000_0000101_1_1000_001
00110110000000000000000000000000000000000000000000_0000111_1_1110_011
11111000000000000000000000000000000000000000000000_0000101_1_0000_000
00000000000000000000000000000000000000000000000000_0000000_1_0000_000
00000000000000000000000000000000000000000000000000_0000000_1_0000_000
00000000000000000000000000000000000000000000000000_0000000_1_0000_000
00000000000000000000000000000000000000000000000000_0000000_1_0000_000
10000000000000000000000000000000000000000000000000_0000001_1_0000_000
10000000000000000000000000000000000000000000000000_0000001_1_0000_000
00010000000000000000000000000000000000000000000000_0000101_1_0000_001
10000000000000000000000000000000000000000000000000_0000010_1_0000_000
10000000000000000000000000000000000000000000000000_0000001_1_0000_000
10000000000000000000000000000000000000000000000000_0000001_1_0000_000
00110100000000000000000000000000000000000000000000_0000111_1_1110_011
00110011100000000000000000000000000000000000000000_0001001_1_0000_000
00000000000000000000000000000000000000000000000000_0000000_1_0000_000
00000000000000000000000000000000000000000000000000_0000000_1_0000_000
00000000000000000000000000000000000000000000000000_0000000_1_0000_000
00000000000000000000000000000000000000000000000000_0000000_1_0000_000
10000000000000000000000000000000000000000000000000_0000001_1_0000_000
10000000000000000000000000000000000000000000000000_0000001_1_0000_000
01100011100011000000000000000000000000000000000000_0010000_1_0101_100
01101100101110110101000000000000000000000000000000_0010100_1_0000_000
00000000000000000000000000000000000000000000000000_0000000_1_0000_000
00000000000000000000000000000000000000000000000000_0000000_1_0000_000
00000000000000000000000000000000000000000000000000_0000000_1_0000_000
00000000000000000000000000000000000000000000000000_0000000_1_0000_000
10000000000000000000000000000000000000000000000000_0000001_1_0000_000
00101100000000000000000000000000000000000000000000_0000110_1_0000_010
10000000000000000000000000000000000000000000000000_0000001_1_0000_000
10000000000000000000000000000000000000000000000000_0000011_1_0000_000
01011100001100000000000000000000000000000000000000_0001100_1_1000_010
01111000001001010001010000000000000000000000000000_0011010_1_1000_100
01101001001110000000000000000000000000000000000000_0010000_1_0000_011
01110100110010100111010100000000000000000000000000_0011110_1_0000_000
00000000000000000000000000000000000000000000000000_0000000_1_0000_000
00000000000000000000000000000000000000000000000000_0000000_1_0000_000
00000000000000000000000000000000000000000000000000_0000000_1_0000_000
00000000000000000000000000000000000000000000000000_0000000_1_0000_000
00000000000000000000000000000000000000000000000000_0000000_1_0000_000
00000000000000000000000000000000000000000000000000_0000000_1_0000_000
00000000000000000000000000000000000000000000000000_0000000_1_0000_000
00000000000000000000000000000000000000000000000000_0000000_1_0000_000
01010000100000000000000000000000000000000000000000_0001010_1_1100_010
00101100000000000000000000000000000000000000000000_0000110_1_0100_010
00110100000000000000000000000000000000000000000000_0000111_1_0110_011
00110011010110000000000000000000000000000000000000_0001101_1_0000_000
00000000000000000000000000000000000000000000000000_0000000_1_0000_000
00000000000000000000000000000000000000000000000000_0000000_1_0000_000
00000000000000000000000000000000000000000000000000_0000000_1_0000_000
00000000000000000000000000000000000000000000000000_0000000_1_0000_000
00000000000000000000000000000000000000000000000000_0000000_1_0000_000
00000000000000000000000000000000000000000000000000_0000000_1_0000_000
00000000000000000000000000000000000000000000000000_0000000_1_0000_000
00000000000000000000000000000000000000000000000000_0000000_1_0000_000
10000000000000000000000000000000000000000000000000_0000001_1_0000_000
10000000000000000000000000000000000000000000000000_0000001_1_0000_000
01000001000000000000000000000000000000000000000000_0001001_1_0000_001
01110010000110111010000000000000000000000000000000_0010110_1_0000_000
10000000000000000000000000000000000000000000000000_0000001_1_0000_000
00001000000000000000000000000000000000000000000000_0000101_1_1000_001
00111100000000000000000000000000000000000000000000_0000111_1_1111_100
00111110011111000000000000000000000000000000000000_0001110_1_0000_000
00000000000000000000000000000000000000000000000000_0000000_1_0000_000
00000000000000000000000000000000000000000000000000_0000000_1_0000_000
00000000000000000000000000000000000000000000000000_0000000_1_0000_000
00000000000000000000000000000000000000000000000000_0000000_1_0000_000
00101000000000000000000000000000000000000000000000_0000110_1_1100_010
00000000000000000000000000000000000000000000000000_0000101_1_1000_001
10000000000000000000000000000000000000000000000000_0000001_1_0000_000
11110000000000000000000000000000000000000000000000_0000100_1_0000_000
00000000000000000000000000000000000000000000000000_0000000_1_0000_000
00000000000000000000000000000000000000000000000000_0000000_1_0000_000
00000000000000000000000000000000000000000000000000_0000000_1_0000_000
00000000000000000000000000000000000000000000000000_0000000_1_0000_000
00000000000000000000000000000000000000000000000000_0000000_1_0000_000
00000000000000000000000000000000000000000000000000_0000000_1_0000_000
00000000000000000000000000000000000000000000000000_0000000_1_0000_000
00000000000000000000000000000000000000000000000000_0000000_1_0000_000
01010000110000000000000000000000000000000000000000_0001010_1_0000_010
01010111000000000000000000000000000000000000000000_0001010_1_1100_011
00110000000000000000000000000000000000000000000000_0000111_1_1100_010
01000000000110110000000000000000000000000000000000_0010000_1_0000_000
00000000000000000000000000000000000000000000000000_0000000_1_0000_000
00000000000000000000000000000000000000000000000000_0000000_1_0000_000
00000000000000000000000000000000000000000000000000_0000000_1_0000_000
00000000000000000000000000000000000000000000000000_0000000_1_0000_000
00000000000000000000000000000000000000000000000000_0000000_1_0000_000
00000000000000000000000000000000000000000000000000_0000000_1_0000_000
00000000000000000000000000000000000000000000000000_0000000_1_0000_000
00000000000000000000000000000000000000000000000000_0000000_1_0000_000
01101010101110110000000000000000000000000000000000_0010000_1_1010_100
01000010100000000000000000000000000000000000000000_0001001_1_0100_010
01100010001001000000000000000000000000000000000000_0010000_1_0110_011
00111110010100101100000000000000000000000000000000_0010010_1_0000_000
00000000000000000000000000000000000000000000000000_0000000_1_0000_000
00000000000000000000000000000000000000000000000000_0000000_1_0000_000
00000000000000000000000000000000000000000000000000_0000000_1_0000_000
00000000000000000000000000000000000000000000000000_0000000_1_0000_000
00000000000000000000000000000000000000000000000000_0000000_1_0000_000
00000000000000000000000000000000000000000000000000_0000000_1_0000_000
00000000000000000000000000000000000000000000000000_0000000_1_0000_000
00000000000000000000000000000000000000000000000000_0000000_1_0000_000
10000000000000000000000000000000000000000000000000_0000001_1_0000_000
10000000000000000000000000000000000000000000000000_0000001_1_0000_000
00000000000000000000000000000000000000000000000000_0000101_1_1000_001
11000000000000000000000000000000000000000000000000_0000010_1_0000_000
00000000000000000000000000000000000000000000000000_0000000_1_0000_000
00000000000000000000000000000000000000000000000000_0000000_1_0000_000
00000000000000000000000000000000000000000000000000_0000000_1_0000_000
00000000000000000000000000000000000000000000000000_0000000_1_0000_000
00000000000000000000000000000000000000000000000000_0000000_1_0000_000
00000000000000000000000000000000000000000000000000_0000000_1_0000_000
00000000000000000000000000000000000000000000000000_0000000_1_0000_000
00000000000000000000000000000000000000000000000000_0000000_1_0000_000
00001000000000000000000000000000000000000000000000_0000101_1_1000_001
01011101001000000000000000000000000000000000000000_0001100_1_1010_011
01001100000000000000000000000000000000000000000000_0001001_1_0100_011
01001110111010100000000000000000000000000000000000_0010000_1_0000_000
00000000000000000000000000000000000000000000000000_0000000_1_0000_000
00000000000000000000000000000000000000000000000000_0000000_1_0000_000
00000000000000000000000000000000000000000000000000_0000000_1_0000_000
00000000000000000000000000000000000000000000000000_0000000_1_0000_000
00000000000000000000000000000000000000000000000000_0000000_1_0000_000
00000000000000000000000000000000000000000000000000_0000000_1_0000_000
00000000000000000000000000000000000000000000000000_0000000_1_0000_000
00000000000000000000000000000000000000000000000000_0000000_1_0000_000
00100100000000000000000000000000000000000000000000_0000110_1_1100_010
01011000100000000000000000000000000000000000000000_0001011_1_1100_011
00101100000000000000000000000000000000000000000000_0000110_1_1100_010
00101111101100000000000000000000000000000000000000_0001100_1_0000_000
10000000000000000000000000000000000000000000000000_0000001_1_0000_000
00000000000000000000000000000000000000000000000000_0000101_1_1000_001
00110110000000000000000000000000000000000000000000_0000111_1_1110_011
00111110011110000000000000000000000000000000000000_0001101_1_0000_000
00000000000000000000000000000000000000000000000000_0000000_1_0000_000
00000000000000000000000000000000000000000000000000_0000000_1_0000_000
00000000000000000000000000000000000000000000000000_0000000_1_0000_000
00000000000000000000000000000000000000000000000000_0000000_1_0000_000
00011000000000000000000000000000000000000000000000_0000101_1_0000_001
01000001100000000000000000000000000000000000000000_0001001_1_0000_001
01000111100000000000000000000000000000000000000000_0001001_1_1100_010
01100100101110000011000000000000000000000000000000_0010100_1_0000_000
00000000000000000000000000000000000000000000000000_0000000_1_0000_000
00000000000000000000000000000000000000000000000000_0000000_1_0000_000
00000000000000000000000000000000000000000000000000_0000000_1_0000_000
00000000000000000000000000000000000000000000000000_0000000_1_0000_000
00000000000000000000000000000000000000000000000000_0000000_1_0000_000
00000000000000000000000000000000000000000000000000_0000000_1_0000_000
00000000000000000000000000000000000000000000000000_0000000_1_0000_000
00000000000000000000000000000000000000000000000000_0000000_1_0000_000
00010000000000000000000000000000000000000000000000_0000101_1_0000_001
00000000000000000000000000000000000000000000000000_0000101_1_1000_001
01000100100000000000000000000000000000000000000000_0001001_1_0000_010
01000010101000000000000000000000000000000000000000_0001101_1_0000_000
10000000000000000000000000000000000000000000000000_0000001_1_0000_000
10000000000000000000000000000000000000000000000000_0000001_1_0000_000
10000000000000000000000000000000000000000000000000_0000001_1_0000_000
00101000000000000000000000000000000000000000000000_0000101_1_0000_000
00000000000000000000000000000000000000000000000000_0000000_1_0000_000
00000000000000000000000000000000000000000000000000_0000000_1_0000_000
00000000000000000000000000000000000000000000000000_0000000_1_0000_000
00000000000000000000000000000000000000000000000000_0000000_1_0000_000
00010000000000000000000000000000000000000000000000_0000101_1_1000_001
00011000000000000000000000000000000000000000000000_0000101_1_0000_001
10000000000000000000000000000000000000000000000000_0000001_1_0000_000
11000000000000000000000000000000000000000000000000_0000011_1_0000_000
00000000000000000000000000000000000000000000000000_0000000_1_0000_000
00000000000000000000000000000000000000000000000000_0000000_1_0000_000
00000000000000000000000000000000000000000000000000_0000000_1_0000_000
00000000000000000000000000000000000000000000000000_0000000_1_0000_000
00000000000000000000000000000000000000000000000000_0000000_1_0000_000
00000000000000000000000000000000000000000000000000_0000000_1_0000_000
00000000000000000000000000000000000000000000000000_0000000_1_0000_000
00000000000000000000000000000000000000000000000000_0000000_1_0000_000
10000000000000000000000000000000000000000000000000_0000001_1_0000_000
10000000000000000000000000000000000000000000000000_0000001_1_0000_000
00101000000000000000000000000000000000000000000000_0000110_1_1100_010
00111110111000000000000000000000000000000000000000_0001011_1_0000_000
00000000000000000000000000000000000000000000000000_0000000_1_0000_000
00000000000000000000000000000000000000000000000000_0000000_1_0000_000
00000000000000000000000000000000000000000000000000_0000000_1_0000_000
00000000000000000000000000000000000000000000000000_0000000_1_0000_000
00000000000000000000000000000000000000000000000000_0000000_1_0000_000
00000000000000000000000000000000000000000000000000_0000000_1_0000_000
00000000000000000000000000000000000000000000000000_0000000_1_0000_000
00000000000000000000000000000000000000000000000000_0000000_1_0000_000
00010000000000000000000000000000000000000000000000_0000101_1_0000_001
10000000000000000000000000000000000000000000000000_0000001_1_0000_000
10000000000000000000000000000000000000000000000000_0000001_1_0000_000
01010000100000000000000000000000000000000000000000_0001011_1_0000_000
00000000000000000000000000000000000000000000000000_0000000_1_0000_000
00000000000000000000000000000000000000000000000000_0000000_1_0000_000
00000000000000000000000000000000000000000000000000_0000000_1_0000_000
00000000000000000000000000000000000000000000000000_0000000_1_0000_000
00000000000000000000000000000000000000000000000000_0000000_1_0000_000
00000000000000000000000000000000000000000000000000_0000000_1_0000_000
00000000000000000000000000000000000000000000000000_0000000_1_0000_000
00000000000000000000000000000000000000000000000000_0000000_1_0000_000
10000000000000000000000000000000000000000000000000_0000001_1_0000_000
00001000000000000000000000000000000000000000000000_0000101_1_0000_001
10000000000000000000000000000000000000000000000000_0000001_1_0000_000
10000000000000000000000000000000000000000000000000_0000010_1_0000_000
00000000000000000000000000000000000000000000000000_0000000_1_0000_000
00000000000000000000000000000000000000000000000000_0000000_1_0000_000
00000000000000000000000000000000000000000000000000_0000000_1_0000_000
00000000000000000000000000000000000000000000000000_0000000_1_0000_000
00000000000000000000000000000000000000000000000000_0000000_1_0000_000
00000000000000000000000000000000000000000000000000_0000000_1_0000_000
00000000000000000000000000000000000000000000000000_0000000_1_0000_000
00000000000000000000000000000000000000000000000000_0000000_1_0000_000
00110000000000000000000000000000000000000000000000_0000111_1_1000_010
00111000000000000000000000000000000000000000000000_0000111_1_0000_011
01010010110000000000000000000000000000000000000000_0001010_1_0000_010
01000011010000000000000000000000000000000000000000_0010000_1_0000_000
00000000000000000000000000000000000000000000000000_0000000_1_0000_000
00000000000000000000000000000000000000000000000000_0000000_1_0000_000
00000000000000000000000000000000000000000000000000_0000000_1_0000_000
00000000000000000000000000000000000000000000000000_0000000_1_0000_000
00000000000000000000000000000000000000000000000000_0000000_1_0000_000
00000000000000000000000000000000000000000000000000_0000000_1_0000_000
00000000000000000000000000000000000000000000000000_0000000_1_0000_000
00000000000000000000000000000000000000000000000000_0000000_1_0000_000
00110010000000000000000000000000000000000000000000_0000111_1_0000_010
01011000111000000000000000000000000000000000000000_0001011_1_0000_011
01010101100000000000000000000000000000000000000000_0001010_1_0000_011
01000110000000000000000000000000000000000000000000_0010001_1_0000_000
10000000000000000000000000000000000000000000000000_0000001_1_0000_000
10000000000000000000000000000000000000000000000000_0000001_1_0000_000
10000000000000000000000000000000000000000000000000_0000001_1_0000_000
01000000100000000000000000000000000000000000000000_0001001_1_0000_000
00000000000000000000000000000000000000000000000000_0000000_1_0000_000
00000000000000000000000000000000000000000000000000_0000000_1_0000_000
00000000000000000000000000000000000000000000000000_0000000_1_0000_000
00000000000000000000000000000000000000000000000000_0000000_1_0000_000
00011000000000000000000000000000000000000000000000_0000101_1_0000_001
00101100000000000000000000000000000000000000000000_0000110_1_0100_010
00010000000000000000000000000000000000000000000000_0000101_1_0000_001
01001110100100000000000000000000000000000000000000_0001101_1_0000_000
10000000000000000000000000000000000000000000000000_0000001_1_0000_000
10000000000000000000000000000000000000000000000000_0000001_1_0000_000
00111100000000000000000000000000000000000000000000_0000111_1_0000_100
01001101100000000000000000000000000000000000000000_0001101_1_0000_000
10000000000000000000000000000000000000000000000000_0000001_1_0000_000
10000000000000000000000000000000000000000000000000_0000001_1_0000_000
00100100000000000000000000000000000000000000000000_0000110_1_1100_010
00110111000000000000000000000000000000000000000000_0001000_1_0000_000
00000000000000000000000000000000000000000000000000_0000101_1_0000_001
10000000000000000000000000000000000000000000000000_0000001_1_0000_000
10000000000000000000000000000000000000000000000000_0000001_1_0000_000
01001101000000000000000000000000000000000000000000_0001010_1_0000_000
00011000000000000000000000000000000000000000000000_0000101_1_0000_001
10000000000000000000000000000000000000000000000000_0000001_1_0000_000
00011000000000000000000000000000000000000000000000_0000101_1_0000_001
10000000000000000000000000000000000000000000000000_0000011_1_0000_000
00000000000000000000000000000000000000000000000000_0000000_1_0000_000
00000000000000000000000000000000000000000000000000_0000000_1_0000_000
00000000000000000000000000000000000000000000000000_0000000_1_0000_000
00000000000000000000000000000000000000000000000000_0000000_1_0000_000
00001000000000000000000000000000000000000000000000_0000101_1_0000_001
01010010000000000000000000000000000000000000000000_0001010_1_0000_010
01100000001001000000000000000000000000000000000000_0010000_1_0000_010
01100000000110010000000000000000000000000000000000_0010101_1_0000_000
00000000000000000000000000000000000000000000000000_0000000_1_0000_000
00000000000000000000000000000000000000000000000000_0000000_1_0000_000
00000000000000000000000000000000000000000000000000_0000000_1_0000_000
00000000000000000000000000000000000000000000000000_0000000_1_0000_000
00000000000000000000000000000000000000000000000000_0000000_1_0000_000
00000000000000000000000000000000000000000000000000_0000000_1_0000_000
00000000000000000000000000000000000000000000000000_0000000_1_0000_000
00000000000000000000000000000000000000000000000000_0000000_1_0000_000
01000111100000000000000000000000000000000000000000_0001001_1_1100_010
10000000000000000000000000000000000000000000000000_0000001_1_0000_000
01011111011110000000000000000000000000000000000000_0001110_1_1100_100
01100001110100101111000000000000000000000000000000_0010110_1_0000_000
10000000000000000000000000000000000000000000000000_0000001_1_0000_000
10000000000000000000000000000000000000000000000000_0000001_1_0000_000
00000000000000000000000000000000000000000000000000_0000101_1_1000_001
11000000000000000000000000000000000000000000000000_0000010_1_0000_000
10000000000000000000000000000000000000000000000000_0000001_1_0000_000
00100100000000000000000000000000000000000000000000_0000110_1_0000_010
10000000000000000000000000000000000000000000000000_0000001_1_0000_000
10000000000000000000000000000000000000000000000000_0000011_1_0000_000
00101100000000000000000000000000000000000000000000_0000110_1_1000_010
01011100110100000000000000000000000000000000000000_0001100_1_1000_011
01000110100000000000000000000000000000000000000000_0001001_1_1000_010
01010111011010010000000000000000000000000000000000_0010001_1_0000_000
00000000000000000000000000000000000000000000000000_0000000_1_0000_000
00000000000000000000000000000000000000000000000000_0000000_1_0000_000
00000000000000000000000000000000000000000000000000_0000000_1_0000_000
00000000000000000000000000000000000000000000000000_0000000_1_0000_000
00000000000000000000000000000000000000000000000000_0000000_1_0000_000
00000000000000000000000000000000000000000000000000_0000000_1_0000_000
00000000000000000000000000000000000000000000000000_0000000_1_0000_000
00000000000000000000000000000000000000000000000000_0000000_1_0000_000
01001001100000000000000000000000000000000000000000_0001001_1_1000_001
10000000000000000000000000000000000000000000000000_0000001_1_0000_000
01001011100000000000000000000000000000000000000000_0001001_1_1110_011
11111000000000000000000000000000000000000000000000_0000101_1_0000_000
10000000000000000000000000000000000000000000000000_0000001_1_0000_000
00110100000000000000000000000000000000000000000000_0000111_1_1110_011
00000000000000000000000000000000000000000000000000_0000101_1_1000_001
11111000000000000000000000000000000000000000000000_0000101_1_0000_000
00000000000000000000000000000000000000000000000000_0000000_1_0000_000
00000000000000000000000000000000000000000000000000_0000000_1_0000_000
00000000000000000000000000000000000000000000000000_0000000_1_0000_000
00000000000000000000000000000000000000000000000000_0000000_1_0000_000
00000000000000000000000000000000000000000000000000_0000101_1_0000_001
00101100000000000000000000000000000000000000000000_0000110_1_1100_010
00010000000000000000000000000000000000000000000000_0000101_1_1000_001
01000000101110000000000000000000000000000000000000_0001101_1_0000_000
00000000000000000000000000000000000000000000000000_0000000_1_0000_000
00000000000000000000000000000000000000000000000000_0000000_1_0000_000
00000000000000000000000000000000000000000000000000_0000000_1_0000_000
00000000000000000000000000000000000000000000000000_0000000_1_0000_000
00000000000000000000000000000000000000000000000000_0000000_1_0000_000
00000000000000000000000000000000000000000000000000_0000000_1_0000_000
00000000000000000000000000000000000000000000000000_0000000_1_0000_000
00000000000000000000000000000000000000000000000000_0000000_1_0000_000
00001000000000000000000000000000000000000000000000_0000101_1_0000_001
00111100000000000000000000000000000000000000000000_0000111_1_1101_100
00001000000000000000000000000000000000000000000000_0000101_1_0000_001
10110100000000000000000000000000000000000000000000_0000111_1_0000_000
10000000000000000000000000000000000000000000000000_0000001_1_0000_000
10000000000000000000000000000000000000000000000000_0000001_1_0000_000
00100000000000000000000000000000000000000000000000_0000110_1_0000_010
10000000000000000000000000000000000000000000000000_0000011_1_0000_000
10000000000000000000000000000000000000000000000000_0000001_1_0000_000
10000000000000000000000000000000000000000000000000_0000001_1_0000_000
10000000000000000000000000000000000000000000000000_0000001_1_0000_000
01000010000000000000000000000000000000000000000000_0001001_1_0000_000
00000000000000000000000000000000000000000000000000_0000101_1_0000_001
10000000000000000000000000000000000000000000000000_0000001_1_0000_000
10000000000000000000000000000000000000000000000000_0000001_1_0000_000
01000110000000000000000000000000000000000000000000_0001010_1_0000_000
00000000000000000000000000000000000000000000000000_0000000_1_0000_000
00000000000000000000000000000000000000000000000000_0000000_1_0000_000
00000000000000000000000000000000000000000000000000_0000000_1_0000_000
00000000000000000000000000000000000000000000000000_0000000_1_0000_000
00000000000000000000000000000000000000000000000000_0000000_1_0000_000
00000000000000000000000000000000000000000000000000_0000000_1_0000_000
