0000_011
0000_011
1000_001
0000_000
1100_010
0000_000
0000_001
0000_000
1000_001
1000_001
1000_001
0000_000
0000_011
0011_100
1000_010
0000_000
0000_100
0010_011
0000_000
0000_000
0000_100
0000_001
0000_000
0000_000
0000_010
1000_001
1000_001
0000_000
0000_001
0000_000
0000_000
0000_000
0000_001
0000_000
0000_000
0000_000
1000_001
0000_000
0000_001
0000_000
0000_000
0000_000
0000_010
0000_000
0000_000
0000_000
0000_000
0000_000
0000_001
1110_011
0000_001
0000_000
0000_001
0000_000
0000_000
0000_000
0000_001
0000_000
0000_000
0000_000
0100_010
1110_011
0000_010
0000_000
0000_000
0000_000
1000_001
0000_000
0000_001
0000_000
0000_000
0000_000
0000_001
0000_010
1100_011
0000_000
0000_010
0000_000
1110_011
0000_000
0000_000
0000_000
0000_010
0000_000
0000_010
1000_010
1010_011
0000_000
0000_000
0000_000
0000_000
0000_000
0000_000
0000_000
0000_000
0000_000
1100_010
0000_001
1110_011
0000_000
0000_000
0000_000
0000_000
0000_000
0000_000
0000_000
0000_000
0000_000
0110_011
0000_001
0010_011
0000_000
0000_000
0000_000
0000_000
0000_000
0000_000
0000_000
0000_000
0000_000
1000_001
1000_010
1010_100
0000_000
0000_000
0000_010
0000_001
0000_000
0000_000
0000_000
0000_000
0000_000
1000_010
0000_010
0000_000
0000_000
0000_000
0000_000
0000_000
0000_000
0000_000
0000_000
0000_000
0000_000
1110_011
0000_000
0000_001
0000_000
0000_000
0000_000
0000_000
0000_000
0000_000
0000_000
0000_000
0000_000
0000_010
0100_010
1000_011
0000_000
0000_000
1000_001
1000_011
0000_000
0000_000
0000_000
0000_000
0000_000
0000_001
1000_001
1100_010
0000_000
0000_001
0000_000
1000_001
0000_000
0000_000
1000_001
0000_000
0000_000
1000_010
0100_011
0000_001
0000_000
0000_001
0000_000
1100_010
0000_000
1000_001
0000_000
0000_001
0000_000
0000_001
0111_100
1000_001
0000_000
0000_000
1000_001
0000_000
0000_000
0000_001
1000_001
0000_000
0000_000
0000_001
0000_011
1100_010
0000_000
0000_000
0000_001
0000_001
0000_000
0000_000
0000_001
0000_000
0000_000
1000_001
0000_001
0000_001
0000_000
0000_000
0000_000
0000_000
0000_000
0000_000
0000_001
0000_001
0000_000
1100_011
1000_011
1000_001
0000_000
0000_001
0000_000
0000_000
0000_000
0000_000
0000_000
0000_000
0000_000
0000_010
1111_100
1000_001
0000_000
0000_000
0000_000
0000_001
0000_000
0000_000
0000_000
0000_000
0000_000
0000_000
0000_000
0100_010
0000_000
0000_000
0000_000
0000_000
0000_000
0000_000
0000_000
0000_000
0000_000
0000_010
1000_011
0110_011
0000_000
0000_000
0000_010
0000_010
0000_000
0000_000
1000_001
0000_000
0000_000
0100_010
1100_010
1000_011
0000_000
0000_000
0000_010
0000_000
0000_000
0000_000
0000_001
0000_001
0000_000
0000_010
0000_001
1100_010
0000_000
0000_000
0000_000
0000_000
0000_000
0000_010
0000_000
0000_000
0000_000
1000_010
0010_011
0000_000
0000_000
0000_010
0000_000
0000_000
0000_000
0000_000
1100_010
0000_000
0000_000
1100_010
0000_010
1100_011
0000_000
0000_000
0000_000
0000_000
0000_000
0000_000
0000_000
0000_000
0000_000
1000_011
0100_011
0000_010
0000_000
0000_000
0000_000
0000_000
0000_000
0000_000
0000_000
0000_000
0000_000
0000_001
0110_100
1100_011
0000_000
0000_000
0000_010
0000_000
0000_000
0000_011
0000_000
0000_000
0000_000
1100_011
0000_011
0101_100
0000_000
1110_011
0000_011
0000_010
0000_000
0000_010
0000_001
1000_001
0000_000
1010_100
1111_100
0000_100
0000_000
0000_001
0000_000
0000_000
0000_000
0000_001
0000_001
0000_001
0000_000
1000_011
0000_010
0000_001
0000_000
0000_000
0000_000
0000_000
0000_000
0000_000
0000_000
0000_000
0000_000
0000_011
0000_000
0000_001
0000_000
0000_000
0000_000
0000_000
0000_000
0000_000
0000_000
0000_000
0000_000
1000_001
0000_001
0000_001
0000_000
0000_000
0000_000
0000_000
0000_000
0000_000
0000_000
0000_000
0000_000
0000_000
0000_001
1000_001
0000_000
0000_000
0000_000
0000_000
0000_000
0000_000
0000_000
0000_000
0000_000
0000_000
0000_000
1000_001
0000_000
0000_000
1000_010
0000_000
0000_000
0000_001
0000_001
0000_011
0000_000
1100_011
1000_001
0000_000
0000_000
0000_000
0000_000
0000_000
0000_000
0000_000
0000_000
0000_000
0000_000
1000_011
1111_100
1000_001
0000_000
0000_000
1110_011
1000_001
0000_000
0000_000
0000_000
0000_000
0000_000
0000_001
0000_000
0100_010
0000_000
0000_010
0000_001
0000_000
0000_000
0000_000
0000_000
0000_000
0000_000
0000_001
0000_001
0000_010
0000_000
0000_000
0000_000
0000_000
0000_000
0000_000
0000_000
0000_000
0000_000
1100_010
1110_011
0011_100
0000_000
0000_000
0000_000
0000_000
0000_000
0000_000
0000_000
0000_001
0000_000
0100_011
1000_010
1000_001
0000_000
0000_100
0000_001
0000_000
0000_000
0000_000
0000_000
0000_000
0000_000
0000_000
0000_001
1000_010
0000_000
0000_000
0000_000
0000_000
0000_000
1000_001
0000_000
0000_000
0000_000
1000_001
0100_010
0110_011
0000_000
0000_000
0100_010
0100_010
0000_000
0000_000
0000_001
1000_001
0000_000
0100_011
0000_001
0000_001
0000_000
1100_010
0100_010
0000_001
0000_000
0000_000
0000_000
1000_001
0000_000
1000_001
0000_001
0000_010
0000_000
0000_000
0000_000
0000_000
0000_000
0000_000
0000_000
0000_000
0000_000
0000_010
0000_000
0000_000
0000_000
0000_000
0000_000
0000_000
0000_000
0000_000
0000_000
0000_000
0000_000
1000_010
0000_010
1110_011
0000_000
0000_000
0000_000
1000_011
0000_000
0000_000
0000_000
0000_001
0000_000
0000_001
0000_000
0010_011
0000_000
0000_000
0000_000
0000_000
0000_000
0000_000
1000_001
0000_000
0000_000
1000_001
1000_001
0000_000
0000_000
0000_000
0000_000
0000_000
0000_000
0000_000
0000_000
0000_000
0000_000
1000_011
1000_001
0000_000
0000_000
0000_000
1000_001
0000_000
0000_000
0000_001
0000_000
0000_010
0000_000
0000_001
0010_011
0000_001
0000_000
0000_000
0000_000
0000_000
0000_000
0000_000
1000_001
0000_000
0000_000
1000_001
0000_001
0000_001
0000_000
0000_000
0000_000
0000_000
0000_000
1000_001
0000_000
0000_000
0000_000
0110_011
0000_001
1000_001
0000_000
0000_000
0000_000
0000_000
0000_000
0000_000
0000_000
0000_000
0000_000
1100_010
0000_000
1110_011
0000_000
0000_000
0000_000
0000_000
0000_000
0000_000
0000_000
0000_000
0000_000
0000_000
1000_001
0000_001
0000_000
0000_000
0000_000
0000_000
0000_000
0000_000
0000_000
0000_000
0000_000
0000_001
0000_001
1100_100
0000_000
0000_000
0000_000
1100_011
0000_000
0000_000
0000_000
0000_001
0000_000
0100_010
1000_001
0000_001
0000_000
0000_000
0000_000
0000_000
0000_000
0000_000
0000_000
0000_000
0000_000
0000_010
1000_011
0100_011
0000_000
0000_000
0000_000
0000_000
0000_000
0000_000
0000_000
0000_000
0000_000
1000_001
0000_000
0000_000
0000_000
0000_000
0000_000
0000_000
0000_000
0000_000
0000_000
0000_000
0000_000
0000_001
0000_000
0000_001
0000_000
0000_000
0000_000
0000_000
0000_000
0000_000
0000_000
0000_000
0000_000
0000_000
0000_000
1000_010
0000_000
0000_000
0000_000
0000_000
0000_000
0000_010
0000_000
0000_000
0000_000
0000_001
0000_001
1000_001
0000_000
0000_000
0000_000
0000_000
0000_000
0000_001
0000_000
0000_000
0000_000
1000_001
0100_010
0011_100
0000_000
0000_000
0000_001
1100_010
0000_000
0000_011
0000_000
0000_000
0000_000
0100_010
0000_010
0000_001
0000_000
0100_011
0000_000
0000_000
0000_000
0000_001
1100_010
0000_000
0000_000
0000_001
1000_001
0010_100
0000_000
0000_000
0000_000
0000_001
0000_000
0000_000
0100_011
0000_001
0000_000
1100_010
1100_010
1100_010
0000_000
0000_001
0000_000
0000_000
0000_000
0000_000
0000_000
0000_000
0000_000
0000_001
0000_000
1000_010
0000_000
0000_000
0000_000
1100_010
0000_000
0000_000
0000_000
0000_010
0000_000
0000_000
0000_010
0000_010
0000_000
0000_000
0000_001
0000_000
0000_000
0000_000
0000_000
0000_000
0000_000
0000_000
0000_000
0000_001
0000_000
0000_000
0000_001
0000_000
0000_000
0000_000
0000_000
0000_000
0000_000
1000_011
0000_000
0000_000
0000_000
0000_000
0000_001
0000_000
0000_000
0000_001
0000_010
0000_000
0000_000
0110_011
0000_001
0100_010
0000_000
0000_000
0000_000
0000_000
0000_000
0000_000
1000_001
0000_000
0000_000
0000_001
0000_001
0111_100
0000_000
0000_000
0000_000
0000_000
0000_000
0000_000
0000_000
1000_001
0000_000
0000_001
1001_100
1010_011
0000_000
0000_001
1000_001
0000_000
0000_000
1000_001
1000_001
0000_000
0000_000
1000_001
0000_000
1110_011
0000_000
0000_000
0000_000
1100_010
0000_000
0000_000
0000_000
0000_000
0000_000
0000_000
1110_011
1001_100
0000_000
0000_000
0000_000
0000_000
0000_000
0000_000
0000_001
0000_010
0000_000
0000_000
0000_010
1000_001
0000_000
0000_000
0000_000
0000_000
0000_000
0000_001
0000_000
0000_001
0000_000
1000_011
1010_011
0000_001
0000_000
0000_000
0000_000
0000_000
0000_000
0000_000
0000_000
0000_001
0000_000
0000_000
0000_010
0000_001
0000_000
0000_000
0000_000
0000_000
0000_000
0000_000
0000_000
0000_001
0000_000
0000_001
0000_010
1010_011
0000_000
0000_000
0000_000
0000_000
0000_000
0000_000
0000_000
0000_000
0000_000
0000_010
1100_011
0000_000
0000_000
0000_000
0000_001
0000_000
0000_000
1100_010
0000_000
0000_000
0000_000
1000_010
0000_010
0100_011
0000_000
0000_000
1000_001
0000_000
0000_000
0000_000
0000_000
1000_001
0000_000
0000_000
0001_100
0000_000
0000_000
0000_000
0000_000
0000_000
0000_000
0000_000
0000_000
0000_000
0000_000
0000_000
0000_001
1100_010
0000_000
0000_000
0000_000
0000_000
0000_000
0000_000
0000_000
0000_000
0000_000
0000_011
0010_011
1100_010
0000_000
0000_000
0000_000
0000_000
0000_000
0000_000
0000_000
0000_000
0000_000
1000_010
0100_010
1000_001
0000_000
0000_010
0000_010
1100_011
0000_000
0000_000
0000_000
0000_000
0000_000
0000_000
1000_001
1010_011
0000_000
0000_000
0000_000
0000_001
0000_000
0000_000
0000_000
0000_000
0000_000
0000_010
0001_100
1010_100
0000_000
1000_010
1100_010
0000_000
0000_000
0000_001
0000_000
0000_001
0000_000
0000_000
1100_100
0011_100
0000_000
0000_000
0000_000
0000_000
0000_000
0000_000
0000_000
0000_000
0000_000
0000_001
0000_010
1000_001
0000_000
1100_010
1000_001
0000_000
0000_000
0000_000
0000_000
1110_011
0000_000
0000_010
0000_001
0000_010
0000_000
0000_000
0000_000
0000_000
0000_000
0000_000
0000_000
0000_000
0000_000
1000_010
0000_001
1100_010
0000_000
1000_001
0000_001
0000_000
0000_000
0000_000
0000_001
0000_000
0000_000
1000_010
1000_001
0110_011
0000_000
0000_000
0000_000
0000_000
0000_000
0000_000
0000_001
0000_000
0000_000
0100_011
1100_011
0111_100
0000_000
0000_000
1000_001
0000_001
0000_000
1000_001
0000_000
0000_000
0000_000
1100_010
0000_001
0000_001
0000_000
0000_000
0000_000
0000_000
0000_000
0000_000
0000_000
0000_000
0000_000
1100_010
0111_100
0000_001
0000_000
0000_000
0000_000
0000_000
0000_000
0000_001
0000_000
0000_000
0000_000
1100_010
0000_001
1000_010
0000_000
0000_000
0000_000
0000_000
0000_000
0000_000
0000_000
0000_000
0000_000
0000_000
0000_000
0000_000
0000_000
0000_000
0000_000
0000_000
0000_000
1000_001
0000_000
0000_000
0000_000
1000_001
0100_010
1100_010
0000_000
0000_000
0000_000
0000_001
0000_000
0000_000
0000_000
0000_000
0000_000
1000_100
1110_011
0000_010
0000_000
0000_000
1000_001
0000_001
0000_000
0000_001
1000_001
0000_000
0000_000
0000_001
0000_001
0000_000
0000_000
0000_000
0000_000
0000_000
0000_000
0000_000
0000_000
0000_000
0000_000
1000_010
0100_011
0100_010
0000_000
0000_000
0000_000
1000_001
0000_000
0000_000
0000_001
0000_000
0000_000
1000_001
0100_010
0000_000
0000_000
0000_000
0000_000
0000_000
0000_000
0000_000
0000_000
0000_000
0000_000
0000_001
1100_010
0000_000
0000_000
0000_000
0000_000
0000_000
0000_000
0000_000
0000_000
0000_000
0000_000
0000_000
0110_011
1010_011
0000_000
0000_000
0000_000
0000_001
0000_000
0000_000
0000_000
1000_001
0000_000
0000_000
0000_000
0000_011
0000_000
0000_000
0000_000
0000_001
0000_000
0000_000
0000_000
0000_001
0000_000
0000_001
0100_010
0000_100
0000_000
0000_000
0000_000
0000_000
0000_000
0000_000
0000_000
0000_000
0000_000
0000_000
0000_011
0000_000
0000_000
0000_000
0000_000
0000_000
0000_000
0000_000
0000_000
0000_000
0000_000
0000_001
0100_011
0001_100
0000_000
0000_000
0000_000
0000_000
0000_000
0000_000
0000_000
0000_000
0000_000
1100_010
0000_001
0000_010
0000_000
0000_000
0000_000
0000_000
0000_000
0000_000
0000_000
0000_000
0000_000
1000_001
1110_011
1000_001
0000_000
0000_000
0000_000
0000_000
0000_000
0000_000
0000_000
0000_000
0000_000
0100_010
0000_000
0000_000
0000_000
0000_011
0000_001
0000_000
0000_000
0000_011
0000_000
0000_000
0000_000
0000_001
0000_011
0000_011
0000_000
0000_000
0000_000
0000_000
0000_000
0000_000
0000_000
0000_000
0000_000
0000_001
1000_001
0000_001
0000_000
0000_000
0000_000
0000_000
0000_000
0000_000
0000_000
0000_000
0000_000
0010_011
1000_001
0110_011
0000_000
0000_010
0000_000
0000_000
0000_000
0000_000
0000_000
0000_000
0000_000
1100_011
0000_010
0000_000
0000_000
0000_000
0000_000
0000_000
0000_000
0000_000
0000_000
0000_000
0000_000
1000_001
0100_011
0000_010
0000_000
0000_000
0000_000
0000_000
0000_000
0000_000
1000_001
0000_000
0000_000
1100_010
1000_001
1000_010
0000_000
0000_000
0000_000
0000_000
0000_000
0000_000
0000_000
0000_001
0000_000
0000_000
0000_010
0000_001
0000_000
0000_000
0000_000
0000_000
0000_000
0000_000
0000_000
0000_000
0000_000
0000_001
1100_010
1000_001
0000_000
0000_000
0000_000
0000_000
0000_000
0000_000
0000_000
0000_010
0000_000
0000_100
0000_011
0000_000
0000_000
0000_001
0000_010
0000_001
0000_000
0000_000
0000_001
0000_000
0000_000
1110_011
0110_011
0010_011
0000_000
0000_001
1100_010
1000_001
0000_000
0000_000
0000_000
0000_000
0000_000
1100_010
1000_001
0000_001
0000_000
0000_000
0000_000
0000_000
0000_000
0000_000
0000_000
0000_000
0000_000
0100_011
0000_010
1100_010
0000_000
0000_000
0000_000
0000_000
0000_000
0000_001
0000_000
0000_000
0000_000
0100_011
1100_011
1100_010
0000_000
0000_000
0000_000
0000_000
0000_000
0000_000
1000_001
0000_000
0000_000
1000_001
0000_001
0010_011
0000_000
0000_000
0000_000
0000_000
0000_000
0000_000
0000_010
0000_000
0000_000
0100_010
1000_011
0000_000
0000_000
0000_000
0000_001
1000_001
0000_000
0000_000
0000_000
0000_000
0000_000
0000_010
0000_001
0000_000
0000_000
0000_000
0000_000
0000_000
0000_000
0000_000
0000_000
0000_000
0000_000
0000_010
1000_010
0000_000
0000_000
0000_000
0000_000
0000_000
0000_000
0000_000
0000_001
1000_001
0000_000
0101_100
0000_001
1000_001
0000_000
0000_000
0000_001
0000_010
0000_000
0000_000
0000_000
0000_000
0000_000
1000_001
1000_010
0000_000
0000_000
0000_000
1000_001
0000_000
0000_000
0000_000
0000_000
0000_001
0000_000
0100_010
0010_100
0000_010
0000_000
0000_001
0000_000
0000_000
0000_000
0000_000
0000_001
0000_000
0000_000
1000_010
1000_001
0000_000
0000_000
0000_000
0000_000
0000_000
0000_000
0000_000
0000_000
0000_000
0000_000
0000_000
1010_011
0000_000
0000_000
0000_000
0000_000
0000_000
0000_000
0000_000
0000_000
0000_000
0000_000
0000_001
1000_011
0000_010
0000_000
0000_000
0000_001
1000_001
0000_000
0000_000
0000_001
0000_000
0000_000
0100_010
0100_010
0000_001
0000_000
0000_000
0000_000
0000_000
0000_000
0000_001
0000_000
0000_000
0000_000
0000_001
0000_000
0000_001
0000_000
0000_000
0000_000
0000_000
0000_000
0000_000
0000_000
0000_000
0000_000
0000_011
0000_001
0000_000
0000_000
0000_001
0000_000
0000_000
0000_000
0000_000
0000_001
0000_000
0000_000
0000_001
0000_011
0100_011
0000_000
1000_010
1000_010
0000_000
0000_000
1110_011
0000_000
0000_010
0000_000
1000_001
1000_001
1000_001
0000_000
0000_000
0000_000
0000_001
0000_000
0000_000
0000_000
1100_010
0000_000
0100_010
1100_011
1101_100
0000_000
0000_000
0000_001
0000_010
0000_000
0000_000
0000_000
0000_001
0000_000
0100_010
1000_001
0000_000
0000_000
0000_000
0000_000
0000_000
0000_000
0000_000
0000_000
0000_000
0000_000
0010_011
1000_011
1100_010
0000_000
1000_001
0000_001
1110_011
0000_000
0000_000
0000_000
0000_000
0000_000
0000_000
0100_010
0001_100
0000_000
0000_000
0000_000
0000_011
0000_000
0000_000
0000_000
0000_000
0000_000
1110_011
0000_001
1000_001
0000_000
0000_000
0000_000
0000_000
0000_000
1100_010
0000_000
0000_001
0000_000
0000_000
0000_000
0000_000
0000_000
0000_000
0000_000
0000_000
0000_000
0000_000
0000_000
0000_000
0000_000
1000_001
1000_011
0000_011
0000_000
0000_001
0000_000
1100_010
0000_000
0000_000
0000_001
0000_011
0000_000
1000_011
0100_100
0110_011
0000_000
0000_001
0000_001
0000_000
0000_000
0000_000
0000_000
0000_000
0000_000
0000_000
0000_001
1010_011
0000_000
0000_000
0000_000
0000_000
0000_000
0000_000
0000_000
0000_000
0000_000
0100_010
1000_001
1100_010
0000_000
0000_000
0000_000
0000_000
0000_000
0000_000
0000_000
0000_000
0000_000
0000_000
1100_010
0000_001
0000_000
0000_000
0000_000
1000_001
0000_000
0000_000
0000_000
0000_001
0000_000
0000_001
1000_001
0100_010
0000_000
0000_011
0000_000
0000_000
0000_000
0100_010
1000_001
0000_000
0000_000
1100_010
1000_001
0000_000
0000_000
0000_000
0000_000
0000_000
0000_000
0000_000
0000_000
0000_000
0000_000
0000_000
0000_010
1000_100
0000_000
1000_001
0000_001
0000_000
0000_000
0000_000
0000_000
0000_000
0000_000
1000_001
0000_001
1100_010
0000_000
0000_000
0000_000
0000_000
0000_000
0000_000
0000_000
0000_000
0000_000
1010_011
1100_010
0000_000
0000_000
0000_000
0000_000
0000_001
0000_000
0000_000
1000_001
1000_001
0000_000
1000_001
0100_010
0000_000
0000_000
0000_001
0000_000
0000_000
0000_000
0000_000
0000_000
0000_000
0000_000
0000_001
0000_000
1100_010
0000_000
0000_001
0000_000
0000_000
0000_000
0000_000
0000_000
0000_000
0000_000
0000_000
0100_010
0100_010
0000_000
0000_000
1000_001
0000_000
0000_000
1000_001
0000_000
0000_000
0000_000
1000_011
1000_001
1100_010
0000_000
0000_001
0000_000
0000_000
0000_000
0000_001
1000_001
0000_000
0000_000
0000_001
0000_001
1000_001
0000_000
0000_001
0000_000
0000_000
0000_000
0000_000
0000_000
0000_000
0000_000
0100_011
0000_001
1101_100
0000_000
0000_000
0000_000
0000_000
0000_000
0000_000
1000_001
0000_000
0000_000
0000_010
0000_001
0000_010
0000_000
0000_000
1000_001
0000_000
0000_000
0000_000
0000_000
0000_000
0000_000
0000_010
0000_000
1010_100
0000_000
0000_000
0000_000
0000_010
0000_000
0000_000
0000_000
0000_000
0000_000
1100_011
1000_001
0000_001
0000_000
0000_000
0000_000
0000_000
0000_000
1000_001
0000_000
0000_000
0000_000
0000_001
0000_010
1100_010
0000_000
0000_001
0000_011
0000_000
0000_000
0000_001
0000_000
0000_000
0000_000
1110_011
0000_010
0000_001
0000_000
1000_001
1100_010
0000_000
0000_000
0000_001
0000_001
0000_000
0000_000
0100_011
1111_100
1111_100
0000_000
0000_000
0000_000
0000_000
0000_000
1100_010
0000_001
0000_000
0000_000
0110_011
0011_100
1100_011
0000_000
0100_011
0000_001
0000_001
0000_000
0000_000
0000_001
0000_000
0000_000
1100_011
0101_100
1110_011
0000_000
0000_000
0000_000
0000_000
0000_000
0000_000
0000_000
0000_001
0000_000
1000_001
0000_000
1110_100
0000_000
0000_000
0000_000
0000_001
0000_000
0000_000
1000_001
0000_000
0000_000
1100_011
0000_000
1000_001
0000_000
0000_000
0000_000
0000_000
0000_000
0000_000
0000_000
0000_000
0000_000
1100_010
1100_011
0000_000
0000_000
0000_000
0000_000
0000_000
0000_000
0000_000
0000_000
0000_000
0000_000
1000_001
1100_010
0000_011
0000_000
0000_000
0000_001
0000_000
0000_000
0000_000
0000_000
0000_001
0000_000
0000_010
1000_010
0000_000
0000_000
0000_000
0000_000
0000_001
0000_000
0000_000
0000_000
0000_000
0000_000
0000_001
0010_011
0000_010
0000_000
0000_000
0000_000
0000_000
0000_000
0000_000
0000_000
0000_000
0000_000
1000_001
0000_001
1000_010
0000_000
0000_010
0000_010
0000_010
0000_000
0000_001
0000_001
0000_000
0000_000
1100_010
0000_001
1000_001
0000_000
0000_000
0000_000
0000_000
0000_000
0000_000
0000_000
0000_000
0000_000
0000_001
1000_010
0000_000
0000_000
0000_000
0000_000
0000_000
0000_000
0000_000
0000_000
0000_000
0000_000
0000_001
0000_010
0000_001
0000_000
0000_000
0000_000
0000_000
0000_000
0000_010
0000_000
0000_000
0000_000
0000_000
1000_001
0000_001
0000_000
0000_000
0000_000
0000_000
0000_000
0000_000
0000_000
0000_000
0000_000
0000_000
0100_010
0000_010
0000_000
1000_001
0000_000
0000_000
0000_000
0000_000
0000_000
0000_000
0000_000
0100_010
0000_001
0000_000
0000_000
0000_000
0000_000
0000_000
0000_000
0000_001
0000_000
0000_000
0000_000
0000_000
0000_001
0000_010
0000_000
0000_000
0000_000
0000_000
0000_000
0000_000
1111_100
1100_010
0000_000
0000_011
0000_001
0000_011
0000_000
1110_011
1000_001
0000_010
0000_000
0000_010
1100_011
0000_001
0000_000
0101_100
0000_010
0000_011
0000_000
0000_000
0000_010
0000_000
0000_000
0000_000
0000_001
0000_010
0000_000
0000_000
0000_001
0000_011
0000_000
0000_000
0000_000
0000_000
0000_000
0000_000
0000_000
0000_000
0000_000
0100_010
0000_000
1000_001
0000_000
0000_000
0000_000
0000_000
0000_000
1100_010
0000_000
0000_000
0000_000
0000_001
1000_001
1100_010
0000_000
0000_000
0000_000
0000_000
0000_000
0000_000
0000_000
0000_000
0000_000
0000_000
0000_000
0000_001
0000_000
0000_000
1110_011
1000_001
0000_000
0000_000
0000_000
0000_000
0000_000
0000_000
1110_100
0100_010
0000_000
1100_010
1100_010
0000_000
0000_000
0000_000
0000_001
0000_010
0000_000
0000_000
1000_010
0000_010
0000_000
0000_000
0000_000
0000_000
0000_000
0000_000
0000_000
0000_000
0000_000
0000_000
0000_000
1000_001
0000_000
0000_000
0000_000
0000_000
0000_000
0000_000
0000_000
0000_000
0000_000
0000_001
0000_000
1000_001
0000_000
0000_000
0000_000
0000_000
0000_000
0000_000
0000_001
0000_000
0000_000
0000_000
0010_011
0100_010
0000_000
0000_000
0000_000
0000_000
0000_000
0000_000
0000_000
0000_000
0000_000
0000_011
0000_001
0000_001
0000_000
0000_010
0000_000
0000_000
0000_000
0000_000
0000_000
0000_000
0000_000
0000_001
0000_000
0100_010
0000_000
0000_000
0000_000
0000_000
0000_000
0000_000
0000_000
0000_000
0000_000
0000_000
0000_000
0000_001
0000_000
0000_000
0000_000
1000_001
0000_000
0000_000
0000_000
0000_000
0000_000
0000_001
1000_001
0000_000
0000_000
0000_000
0000_000
0000_000
0000_000
0000_000
0000_000
0000_000
0000_000
0100_011
0100_010
1100_010
0000_000
1000_001
0000_000
0000_000
0000_000
0000_000
0000_000
0000_000
0000_000
0000_001
1000_010
0000_000
0000_000
0000_000
0000_000
0000_000
0000_000
0000_000
0000_000
0000_000
0000_000
0000_000
0000_000
1000_001
0000_000
0000_000
0000_000
0000_000
0000_000
0000_000
0000_000
0000_000
0000_000
0100_010
0010_011
0000_000
0000_000
0000_000
0000_000
0000_000
0000_000
0000_000
0000_000
0000_000
0000_000
0000_001
1000_001
0000_001
0000_000
0000_000
0000_000
0000_000
0000_000
0000_000
0000_000
0000_000
0000_000
0000_000
0000_000
0000_001
0000_000
0000_000
0000_000
0000_000
0000_000
0000_000
0000_000
0000_000
0000_000
0000_000
0000_000
0000_001
0000_000
0000_000
0000_000
0000_000
0000_000
0000_000
0000_000
0000_000
0000_000
0000_011
0000_001
0000_000
0000_000
0000_010
0000_000
0000_000
0000_000
0000_000
0000_000
0000_000
0000_000
0010_011
0000_011
0000_001
0000_000
0000_000
0000_000
0000_000
0000_000
0000_000
0000_000
0000_000
0000_000
1000_010
1000_010
0000_000
0000_000
0000_000
0000_000
0000_000
0000_000
0000_000
0000_000
0000_000
0000_000
0000_001
0000_010
0100_010
0000_000
0000_000
1100_010
0000_100
0000_000
0000_000
0000_010
0000_010
0000_000
1000_001
1000_001
0000_000
0000_000
0000_000
0000_000
0000_000
0000_000
0000_000
0000_000
0000_000
0000_000
0000_000
1110_011
1100_010
0000_000
0000_000
0000_000
0000_000
0000_000
0000_000
0000_000
0000_000
0000_000
1100_010
0000_001
0000_000
0000_000
0000_000
0000_000
0000_000
0000_000
0000_000
0000_000
0000_000
0000_000
1100_010
0000_001
0000_000
0000_000
0000_000
0000_000
0000_000
0000_000
0000_000
0000_000
0000_000
0000_000
1000_010
0100_010
0100_010
0000_000
0000_000
0000_000
0000_000
0000_000
0000_000
0000_000
0000_000
0000_000
0000_000
0000_000
0000_000
0000_000
0000_000
0000_000
0000_000
0000_000
0000_000
0000_000
0000_000
0000_000
1000_001
0000_000
0000_001
0000_000
0000_000
0000_000
0000_000
0000_000
0000_000
0000_000
0000_000
0000_000
0000_000
1000_011
0100_010
0000_000
0000_010
1000_010
0000_000
0000_000
1100_010
1000_001
0000_000
0000_000
1100_010
0000_000
0100_010
0000_000
0000_000
0000_000
0000_000
0000_000
0000_000
0000_000
0000_000
0000_000
0000_001
1000_001
1000_001
0000_000
0000_000
0000_000
0000_000
0000_000
0000_000
0000_000
0000_000
0000_000
0000_000
0000_010
0000_001
0000_000
0000_000
0000_000
0000_000
0000_000
0000_000
0000_000
0000_000
0000_000
0000_001
0000_000
0000_001
0000_000
0000_011
0000_000
0000_000
0000_000
0000_010
0000_000
0000_000
0000_000
0000_000
0000_000
0000_000
0000_000
0000_000
0000_000
0000_000
0000_000
0000_000
0000_000
0000_000
0000_000
0000_010
0000_000
0000_000
0000_000
0000_000
0000_000
0000_000
0000_000
0000_000
0000_000
0000_000
0000_000
0000_000
0000_000
0000_000
0000_000
0000_000
0000_000
0000_000
0000_000
0000_000
0000_000
0000_000
0000_000
0000_000
0000_000
0000_001
0000_000
0000_000
0000_000
0000_000
0000_000
0000_000
0000_000
0000_000
0000_000
0000_000
0000_000
0000_010
0000_000
0000_000
0000_000
0000_000
0000_000
0000_000
0000_000
0000_000
0000_000
0000_000
0000_001
0000_011
0000_000
0000_000
0000_000
0000_100
0000_000
0000_000
0000_000
0000_000
0000_000
1000_011
1100_010
1000_001
0000_000
1000_001
0000_001
0000_000
0000_000
0000_000
0000_000
0000_000
0000_000
1000_011
0000_001
0000_001
0000_000
0000_000
0000_000
0000_000
0000_000
0000_000
0000_000
0000_000
0000_000
1100_011
0100_010
0000_000
0000_000
0000_000
0000_001
0000_000
0000_000
0000_000
0000_000
0000_000
0000_000
0000_000
0000_000
0000_000
0000_000
0000_000
0000_000
0000_000
0000_000
0000_000
0000_000
0000_000
0000_000
0000_010
0000_000
0000_000
0000_000
0000_000
0000_000
0000_000
0000_000
0000_000
0000_000
0000_000
0000_000
0000_000
0000_001
0110_011
0000_000
0000_000
0000_000
0000_010
0000_000
0000_000
0000_000
0000_000
0000_000
1000_010
1000_001
1100_011
0000_000
0000_000
0000_000
0000_000
0000_000
0000_000
0000_000
0000_000
0000_000
1100_010
1000_001
0000_000
0000_000
0000_000
0000_000
0000_000
0000_000
0000_000
0000_000
0000_000
0000_000
0000_000
0000_000
0000_000
0000_000
0000_000
0000_000
0000_000
0000_000
0000_000
0000_000
0000_000
0000_000
0000_001
0000_000
1000_001
0000_000
0000_000
0000_000
0000_000
0000_000
0000_000
0000_000
0000_000
0000_000
0000_010
0000_000
0000_000
0000_000
0000_000
0000_000
0000_000
0000_000
0000_000
0000_000
0000_000
0000_000
1000_001
0000_010
1000_001
0000_000
0000_000
0000_000
0000_000
0000_000
0000_000
0000_000
0000_010
0000_000
0000_000
1000_010
1000_010
0000_000
0000_000
0000_000
0000_000
0000_000
0000_000
0000_000
0000_001
0000_000
1000_001
0110_011
1000_001
0000_000
1000_001
0000_000
0000_000
0000_000
0000_000
0000_000
0000_000
0000_000
0000_000
0000_000
0000_000
0000_000
0000_000
0000_000
0000_000
0000_000
0000_000
0000_000
0000_000
0000_000
1000_001
0000_011
1100_010
0000_000
0000_000
0000_000
0000_000
0000_000
0000_000
0000_000
0000_000
0000_000
1000_010
1100_010
0000_001
0000_000
0000_001
0000_000
0000_000
0000_000
0000_000
0000_000
0000_000
0000_000
1000_001
1000_001
0100_010
0000_000
1000_001
1100_010
1000_001
0000_000
0000_000
0000_000
0000_000
0000_000
1100_011
0000_010
0100_010
0000_000
0000_000
0000_000
0000_000
0000_000
0000_000
0000_000
0000_000
0000_000
0000_000
0010_011
1000_001
0000_000
0000_000
0000_000
0000_000
0000_000
0000_000
0000_000
0000_000
0000_000
0000_001
0000_000
1100_010
0000_000
0000_000
0000_000
0000_000
0000_000
0000_000
0000_000
0000_000
0000_000
0000_000
1000_010
0000_000
0000_000
0000_000
0000_000
0000_000
0000_000
0000_000
0000_000
0000_000
0000_000
0100_010
0000_000
0000_000
0000_000
0000_000
0000_000
0000_000
0000_000
0000_000
0000_000
0000_000
0000_000
0000_000
0000_000
0000_000
0000_000
0000_000
0000_000
0000_000
0000_000
0000_000
0000_000
0000_000
0000_000
0000_001
1110_011
0000_010
0000_000
0000_000
0000_000
0000_000
0000_000
0000_000
0000_000
0000_000
0000_000
0000_010
0000_001
0010_100
0000_000
0000_000
0000_000
0000_000
0000_000
0000_000
0000_000
0000_000
0000_000
0000_000
0000_010
0000_001
0000_000
0000_000
0000_000
0000_000
0000_000
0000_000
0000_000
0000_000
0000_000
0110_011
0010_011
1100_010
0000_000
0000_000
0000_000
0000_000
0000_000
1100_010
0000_000
0000_000
0000_000
1000_001
0000_000
0000_000
0000_000
0000_000
0000_000
0000_000
0000_000
0000_000
0000_000
0000_000
0000_000
0000_000
0000_001
0000_000
0000_000
0000_000
0000_000
0000_000
0000_000
0000_000
0000_000
0000_000
0000_000
1000_010
0000_000
0000_001
0000_000
0000_000
0000_000
0000_000
0000_000
0000_000
0000_000
0000_001
0000_000
0000_010
0000_000
0100_011
0000_000
0000_000
0000_000
0000_000
0000_000
0000_000
0000_000
0000_000
0000_000
0100_010
1000_010
1000_010
0000_000
0000_000
1000_010
0000_001
0000_000
0000_000
0000_001
0000_010
0000_000
1000_001
0000_001
1000_001
0000_000
0000_000
0000_000
0000_000
0000_000
0000_000
0000_000
0000_000
0000_000
1000_001
0000_000
0000_010
0000_000
0000_000
0000_000
0000_000
0000_000
0000_000
0000_000
0000_000
0000_000
0000_000
0000_000
0000_000
0000_000
0000_000
0000_000
0000_000
0000_000
0000_001
0000_000
0000_000
0000_000
0000_010
0000_001
0000_000
0000_000
0000_000
0000_000
0000_000
0000_000
0000_000
0000_000
0000_000
0000_000
0000_011
0100_010
0101_100
0000_000
0000_001
0000_000
0000_000
0000_000
0000_001
0000_000
0000_000
0000_000
0110_011
0000_001
0011_100
0000_000
0000_001
0000_001
0000_001
0000_000
0000_000
0000_000
0000_000
0000_000
0000_001
0000_000
1000_100
0000_000
0000_000
0000_000
0000_000
0000_000
0000_000
0000_000
0000_000
0000_000
0000_000
0000_001
0000_010
0000_000
0000_000
0000_000
0000_000
0000_000
0000_000
0000_000
0000_000
0000_000
1000_001
0000_001
0000_000
0000_000
0000_000
0000_000
0000_000
0000_000
0000_000
0000_000
0000_000
0000_000
1000_001
0000_001
0000_000
0000_000
0000_010
0000_000
0000_000
0000_000
0000_001
0000_000
0000_000
0000_000
0000_001
1000_001
0000_010
0000_000
0000_000
0000_000
0000_000
0000_000
0000_000
0000_001
0000_000
0000_000
0000_011
0000_000
1000_001
0000_000
0000_000
0000_000
0000_000
0000_000
0000_000
0000_000
0000_000
0000_000
0000_001
1000_001
0000_010
0000_000
0000_000
0000_000
0000_000
0000_000
0000_000
0000_000
0000_000
0000_000
0000_000
0000_001
0000_000
0000_000
0000_000
0000_000
0000_000
0000_000
1000_001
0000_000
0000_000
0000_000
0000_010
1000_010
0000_000
0000_000
0000_001
0000_000
0000_000
0000_000
0000_010
0000_000
0000_000
0000_000
1000_001
1000_001
0000_011
0000_000
0000_000
0000_000
0000_000
0000_000
0000_000
0000_000
0000_000
0000_000
0000_010
0000_001
0000_000
0000_000
0000_001
0000_000
0000_000
0000_000
0000_001
0000_001
0000_000
0000_000
0100_011
0000_010
1010_011
0000_000
0000_001
0000_001
0000_010
0000_000
0000_000
0000_000
0000_000
0000_000
1100_010
1100_010
0000_000
0000_000
0000_000
0000_000
0000_000
0000_000
0000_000
0000_000
0000_000
0000_000
0000_000
0000_001
0000_001
0000_000
0000_000
0000_000
0000_000
0000_000
0000_000
0000_000
0000_000
0000_000
1000_001
0000_001
0000_000
0000_000
0000_000
0000_000
0000_000
0000_000
0000_000
0000_000
0000_000
0000_000
0000_001
1000_011
0000_001
0000_000
0000_000
0000_011
0000_010
0000_000
0000_000
1000_001
0000_000
0000_000
0000_000
0000_000
0000_010
0000_000
0000_000
0000_000
0000_000
0000_000
0000_000
0000_000
0000_000
0000_000
0000_000
0000_010
0000_001
0000_000
0000_000
0000_000
0000_000
0000_000
0000_000
0000_000
0000_000
0000_000
0000_010
0000_000
1110_011
0000_000
0000_000
0000_000
0000_000
0000_000
0000_000
0000_000
0000_000
0000_000
0000_000
0000_000
1000_011
0000_000
0000_000
0000_000
0000_010
0000_000
0000_000
0000_000
0000_001
0000_000
0000_011
0000_001
0010_011
0000_000
1000_010
0000_000
1000_001
0000_000
0000_000
0000_000
0000_000
0000_000
1000_010
0000_000
0000_011
0000_000
0000_001
1000_001
0000_000
0000_000
0000_001
0000_000
0000_000
0000_000
0000_011
0000_010
1100_010
0000_000
0000_010
1000_001
0000_001
0000_000
0000_000
0000_000
0000_001
0000_000
0000_011
1110_011
1100_010
0000_000
0000_000
1100_010
0000_001
0000_000
0000_000
0000_000
0000_000
0000_000
0000_000
0000_000
0000_000
0000_000
0000_000
0000_001
0000_000
0000_000
0000_000
0000_000
0000_000
0000_000
1110_011
1000_011
1100_010
0000_000
1100_011
0000_000
0000_010
0000_000
0000_000
0000_000
0000_001
0000_000
1000_001
0000_001
0000_000
0000_000
0100_010
1100_010
0000_000
0000_000
1100_010
0000_000
0000_000
0000_000
0000_010
0000_000
1100_010
0000_000
0000_000
0000_000
0000_000
0000_000
0000_000
0000_000
1000_001
0000_000
0010_011
0000_001
0000_010
0000_000
0000_001
1000_001
0000_010
0000_000
0000_001
0000_000
0000_000
0000_000
0100_010
1100_011
1100_010
0000_000
0000_001
1000_001
0000_000
0000_000
0000_000
0000_000
1100_010
0000_000
0010_011
1100_100
0100_010
0000_000
1100_010
1101_100
1111_100
0000_000
1100_010
1000_001
1100_010
0000_000
1100_010
1000_010
0000_001
0000_000
0100_010
0000_000
0000_001
0000_000
0000_000
0000_000
0000_000
0000_000
0110_100
1000_010
1000_100
0000_000
0000_011
1000_010
1000_010
0000_000
1111_100
0000_000
1000_001
0000_000
0010_011
1010_011
1111_100
0000_000
1000_010
0000_000
0000_001
0000_000
0000_011
1000_001
1000_010
0000_000
1001_100
1100_100
1011_100
0000_000
1011_100
0000_010
0100_011
0000_000
1110_011
1100_010
1111_100
0000_000
1010_011
1000_010
0000_100
0000_000
0100_011
1100_010
0000_000
0000_000
1110_011
1000_001
0000_000
0000_000
1000_011
1000_011
0000_010
0000_000
0000_001
1100_011
1100_100
0000_000
0000_000
0000_000
1000_001
0000_000
0000_011
1100_100
0100_010
0000_000
0000_010
1000_001
0000_000
0000_000
0000_010
0000_010
1100_010
0000_000
0010_011
1100_011
1000_010
0000_000
0000_011
0000_010
1000_010
0000_000
0000_010
0000_000
0000_001
0000_000
1100_010
1000_001
1000_001
0000_000
0000_000
0000_000
0000_001
0000_000
0000_001
0000_000
0000_000
0000_000
1000_001
1100_010
0010_011
0000_000
1010_011
1000_001
0000_001
0000_000
0000_010
0000_001
0000_001
0000_000
0000_010
0000_010
0010_011
0000_000
0000_000
0000_000
0000_001
0000_000
0000_000
0000_000
0000_000
0000_000
0000_000
0000_000
0000_000
0000_000
0000_000
0000_000
0000_000
0000_000
0000_000
0000_000
0000_000
0000_000
0110_011
0101_100
0000_010
0000_000
1011_100
0000_001
0000_000
0000_000
0000_001
0000_010
1110_011
0000_000
1000_011
0000_100
0000_010
0000_000
1100_010
0000_000
0000_001
0000_000
0000_000
0000_010
0000_001
0000_000
1100_010
1110_011
0000_001
0000_000
0000_000
0000_000
0000_000
0000_000
0000_000
1100_010
1100_010
0000_000
0000_001
0000_010
0010_011
0000_000
1000_001
0000_000
0000_010
0000_000
0000_000
0000_000
1100_010
0000_000
0000_001
1000_001
0000_010
0000_000
0000_000
1000_001
0100_010
0000_000
0000_000
1000_001
0000_001
0000_000
0100_010
0100_010
0000_000
0000_000
1000_001
0000_001
0000_010
0000_000
0000_001
1000_001
0000_000
0000_000
0000_001
1000_001
1000_001
0000_000
0000_000
0000_000
0000_000
0000_000
0000_000
0000_000
0000_000
0000_000
0010_011
0000_010
0111_100
0000_000
0000_000
0000_100
0000_100
0000_000
0000_000
1000_001
1000_001
0000_000
0000_010
0010_011
0001_100
0000_000
0000_010
0000_000
0000_000
0000_000
0000_011
0000_010
0000_000
0000_000
1110_011
1000_001
0000_000
0000_000
0000_000
0000_000
0000_000
0000_000
0000_000
0000_000
0000_000
0000_000
0000_000
0000_000
1100_010
0000_000
0000_000
0000_000
0000_000
0000_000
0000_000
0000_000
0000_000
0000_000
0000_000
0000_000
0000_000
0000_000
0000_000
0000_000
0000_000
0000_000
0000_000
0000_000
1100_010
0000_000
0000_000
1100_010
0000_011
0000_000
0000_001
0000_000
0000_010
0000_000
0100_010
0000_000
0000_010
0000_000
1100_010
1110_011
0000_001
0000_000
0000_000
1000_001
0000_001
0000_000
0000_000
0000_000
0000_000
0000_000
1000_011
0100_010
1000_001
0000_000
0000_010
1000_010
1100_010
0000_000
1000_010
1100_010
0000_000
0000_000
1010_100
1100_010
1000_010
0000_000
0000_000
0000_000
0000_000
0000_000
0000_000
0000_000
0000_000
0000_000
1110_011
0000_001
1000_001
0000_000
0000_000
0000_000
0000_000
0000_000
1000_001
0000_000
0000_000
0000_000
0000_001
0000_010
0000_001
0000_000
0000_000
0000_000
0000_000
0000_000
0000_000
0000_010
0000_000
0000_000
0100_011
1100_010
0100_010
0000_000
0000_000
1000_001
1000_010
0000_000
1110_011
1000_010
0000_010
0000_000
1000_100
1000_001
0000_001
0000_000
0000_000
0000_010
0000_001
0000_000
0000_001
0000_000
0000_010
0000_000
1000_010
1000_001
1000_011
0000_000
0000_001
0000_001
0000_000
0000_000
0000_000
0000_000
0000_000
0000_000
0100_010
0000_001
0000_000
0000_000
0000_000
0000_000
0000_000
0000_000
0000_000
0000_000
0000_000
0000_000
1000_011
0000_001
0010_100
0000_000
0000_000
0000_000
1100_100
0000_000
0000_001
0100_010
1100_010
0000_000
0111_100
1101_100
0000_010
0000_000
0000_010
0000_000
0000_010
0000_000
0000_010
1000_001
0000_000
0000_000
0000_011
1010_011
0000_010
0000_000
0000_000
0000_000
0000_000
0000_000
0000_000
1000_001
0000_000
0000_000
0000_000
0000_010
1000_001
0000_000
0000_000
1000_001
0000_000
0000_000
0000_000
1000_001
0000_001
0000_000
0100_010
1000_010
1000_001
0000_000
0000_000
0000_000
0000_000
0000_000
0000_000
0000_000
0000_000
0000_000
0000_000
0100_010
1100_010
0000_000
0000_000
0000_000
0000_000
0000_000
0000_000
1000_001
0000_000
0000_000
0111_100
0000_010
0111_100
0000_000
0000_000
0000_000
1000_001
0000_000
0000_001
0000_000
0000_000
0000_000
1110_100
1101_100
0100_011
0000_000
1000_001
0000_000
0000_001
0000_000
1000_001
1000_001
0000_000
0000_000
0000_001
1010_011
1100_010
0000_000
0000_000
0000_000
0000_011
0000_000
1000_001
1100_010
0100_011
0000_000
1110_011
0111_100
1100_010
0000_000
1100_010
0000_001
0000_000
0000_000
1100_010
1000_001
0000_000
0000_000
1000_010
1000_001
0000_011
0000_000
1000_001
0000_000
0000_000
0000_000
0000_000
0000_000
0000_000
0000_000
1000_001
0000_000
1000_001
0000_000
0000_000
0000_000
0000_000
0000_000
1000_001
0000_000
1000_001
0000_000
0000_001
0000_010
0000_001
0000_000
0000_000
1000_001
0000_000
0000_000
0000_000
0010_011
0000_000
0000_000
1000_010
0110_011
0000_000
0000_000
1110_011
0000_000
0000_000
0000_000
0000_001
0000_000
0000_000
0000_000
0000_001
0010_011
0000_000
0000_000
0000_000
0000_000
0000_000
0000_000
0000_001
0000_000
0000_000
0000_000
1000_001
1100_010
1100_010
0000_000
0000_000
0000_000
0000_000
0000_000
1100_010
0000_000
0000_000
0000_000
1001_100
1100_010
0000_010
0000_000
0000_000
1000_001
0000_010
0000_000
0000_000
0000_000
0000_000
0000_000
1000_001
0000_001
0000_010
0000_000
0000_001
0000_000
0000_001
0000_000
0000_001
0000_001
0000_000
0000_000
0000_000
0000_000
0000_000
0000_000
0000_000
0000_000
0000_000
0000_000
0000_000
0000_000
0000_000
0000_000
1000_010
0110_011
0000_001
0000_000
0000_001
0000_000
0000_001
0000_000
0000_001
1000_001
1100_010
0000_000
0000_000
0000_001
1000_001
0000_000
0000_000
0000_000
0000_000
0000_000
0000_000
0000_000
0000_000
0000_000
0000_000
1111_100
1000_001
0000_000
0000_010
1000_010
1000_001
0000_000
0000_100
0000_100
0100_100
0000_000
0000_000
1000_001
0000_001
0000_000
0000_000
0000_000
0000_000
0000_000
0000_000
0000_000
1000_010
0000_000
0000_000
0100_011
0010_011
0000_000
0000_000
0000_000
0000_001
0000_000
0000_000
1100_010
0000_001
0000_000
1000_010
1000_011
1100_011
0000_000
0000_000
0000_001
1100_010
0000_000
0000_000
0000_001
1100_010
0000_000
0000_000
0000_001
1000_010
0000_000
0000_000
0000_000
0000_000
0000_000
0000_000
0000_001
0000_000
0000_000
0000_000
1000_001
1110_011
0000_000
0000_000
0000_000
0000_000
0000_000
0000_000
0000_000
0000_000
0000_000
1101_100
0110_011
0111_100
0000_000
0000_000
1100_010
0000_010
0000_000
0100_010
1100_010
0000_011
0000_000
1100_010
1010_011
0110_011
0000_000
0000_001
0000_100
0000_000
0000_000
1000_001
1000_001
0000_001
0000_000
0000_000
0000_000
0000_000
0000_000
0000_000
0000_000
0000_000
0000_000
0000_000
0000_000
0000_000
0000_000
1000_011
1100_010
0000_000
0000_000
0000_000
0000_000
0000_000
0000_000
0000_000
0000_000
0000_000
0000_000
0110_011
1000_001
1000_001
0000_000
0000_001
0000_000
0000_000
0000_000
0000_000
0000_000
0000_001
0000_000
0000_001
1000_001
0000_000
0000_000
0000_000
0000_000
0000_000
0000_000
0000_000
0000_000
0000_000
0000_000
0000_000
0000_001
0000_000
0000_000
0000_000
0000_000
0000_000
0000_000
0000_000
0000_000
0000_000
0000_000
1000_010
1100_010
0000_001
0000_000
1000_001
1000_001
0000_000
0000_000
1000_001
1100_010
0000_000
0000_000
1000_001
0000_000
0000_000
0000_000
0000_000
0000_000
0000_000
0000_000
0000_000
0000_000
0000_000
0000_000
1000_001
0000_011
1111_100
0000_000
0000_000
0000_000
1110_011
0000_000
0000_001
0000_011
1000_001
0000_000
0100_010
1100_011
1101_100
0000_000
0000_001
0000_000
1100_010
0000_000
0000_001
0000_000
1100_010
0000_000
0101_100
1100_010
0000_011
0000_000
0000_000
0000_000
0000_000
0000_000
0000_011
0000_000
0000_000
0000_000
0100_011
1010_011
0000_010
0000_000
0000_001
1000_001
0000_000
0000_000
0000_000
0000_000
0000_000
0000_000
0000_000
1100_010
0000_000
0000_000
0000_000
0000_000
0000_000
0000_000
0000_000
0000_000
1111_100
0000_000
0000_000
0000_000
0000_000
0000_000
0000_000
0000_000
0000_000
0000_000
1100_010
0000_000
0000_000
0000_000
1100_010
0000_000
0000_100
0000_000
0000_010
0000_000
0000_000
0000_000
0000_000
0000_000
0000_000
0000_000
1100_010
0000_000
0000_000
0000_000
0000_000
0000_000
0000_000
0000_000
0000_000
0000_000
0000_000
0000_000
0000_000
0000_000
0000_000
0000_000
0000_000
0000_000
0000_010
0000_000
0000_010
0000_000
0000_000
0000_000
0000_000
1100_010
1100_010
0000_000
0000_010
1111_100
0000_000
0000_000
0000_000
0000_000
0000_000
0000_000
0000_000
0000_000
1010_100
0000_000
0000_000
1100_010
0000_000
0000_000
0000_000
0000_000
0000_000
0000_000
0000_000
1100_010
0000_000
0000_000
0000_000
0000_010
0000_000
0000_000
0000_000
0000_000
1100_010
0000_000
0000_100
0000_000
0000_000
0000_000
0000_000
0000_000
0000_000
0000_000
0000_000
0000_000
0000_000
0000_000
0000_000
0000_010
0000_000
0000_000
0000_000
0000_000
0000_000
0000_000
0000_000
0000_000
0000_000
0000_000
0000_000
0000_000
0000_000
0000_000
0000_000
0000_000
0000_000
0000_000
0000_000
0000_000
0000_000
0000_000
0000_000
0000_000
0000_000
0000_000
0000_000
0000_000
0000_000
0000_000
0000_000
0000_000
0000_000
0000_000
0000_000
0000_000
0000_000
0000_000
0000_000
0000_000
0000_000
0000_000
0000_000
0000_000
0000_000
0000_000
1100_010
0000_000
0000_000
0000_000
0000_000
0000_000
0000_000
0000_000
0000_000
0000_000
0000_000
0000_000
0000_000
0000_000
0000_000
0000_000
0000_000
0000_000
0000_000
0000_000
0000_000
0000_000
0000_000
0000_000
0000_000
0000_000
0000_000
0000_000
0000_000
0000_000
0000_000
0000_000
0000_000
0000_000
0000_000
0000_000
0000_000
0000_000
0000_000
0000_000
0000_000
0000_000
0000_000
0000_000
0000_000
0000_000
0000_000
0000_000
0000_000
0000_000
0000_000
0000_000
0000_000
0000_000
0000_000
0000_000
0000_000
0000_000
0000_000
0000_000
0000_000
0000_000
0000_000
0000_000
0000_000
0000_000
0000_000
0000_000
0000_000
0000_000
0000_000
0000_000
0000_000
0000_000
0000_000
0000_000
0000_000
0000_000
0000_000
0000_000
0000_000
0000_000
0000_000
0000_000
0000_000
0000_000
0000_000
0000_000
0000_000
0000_000
0000_000
0000_000
0000_000
0000_000
0000_000
0000_000
0000_000
0000_000
0000_000
0000_000
0000_000
0000_000
0000_000
0000_000
0000_000
0000_000
0000_000
0000_000
0000_000
0000_000
0000_000
0000_000
0000_000
0000_000
0000_000
0000_000
0000_000
0000_000
0000_000
0000_000
0000_000
0000_000
0000_000
0000_000
0000_000
0000_000
0000_000
0000_000
0000_000
0000_000
0000_000
0000_000
0000_000
0000_000
0000_000
0000_000
0000_000
0000_000
0000_000
0000_000
0000_000
0000_000
0000_000
0000_000
0000_000
0000_000
0000_000
0000_000
0000_000
0000_000
0000_000
0000_000
0000_000
0000_000
0000_000
0000_000
0000_000
0000_000
0000_000
0000_000
0000_000
0000_000
0000_000
0000_000
0000_000
0000_000
0000_000
0000_000
0000_000
0000_000
0000_000
0000_000
0000_000
0000_000
0000_000
0000_000
0000_000
0000_000
0000_000
0000_000
0000_000
0000_000
0000_000
0000_000
0000_000
0000_000
0000_000
0000_000
0000_000
0000_000
0000_000
0000_000
0000_000
0000_000
0000_000
0000_000
0000_000
0000_000
0000_000
0000_000
0000_000
0000_000
0000_000
0000_000
0000_000
0000_000
0000_000
0000_000
0000_000
0000_000
0000_000
0000_000
0000_000
0000_000
0000_000
0000_000
0000_000
0000_000
0000_000
0000_000
0000_000
0000_000
0000_000
0000_000
0000_000
0000_000
0000_000
0000_000
0000_000
0000_000
0000_000
0000_000
0000_000
0000_000
0000_000
0000_000
0000_000
0000_000
0000_000
0000_000
0000_000
0000_000
0000_000
0000_000
0000_000
0000_000
0000_000
0000_000
0000_000
0000_000
0000_000
0000_000
0000_000
0000_000
0000_000
0000_000
0000_000
0000_000
0000_000
0000_000
0000_000
0000_000
0000_000
0000_000
0000_000
0000_000
0000_000
0000_000
0000_000
0000_000
0000_000
0000_000
0000_000
0000_000
0000_000
0000_000
0000_000
0000_000
0000_000
0000_000
0000_000
0000_000
0000_000
0000_000
0000_000
0000_000
0000_000
0000_000
0000_000
0000_000
0000_000
0000_000
0000_000
0000_000
0000_000
0000_000
0000_000
0000_000
0000_000
0000_000
0000_000
0000_000
0000_000
0000_000
0000_000
0000_000
0000_000
0000_000
0000_000
0000_000
0000_000
0000_000
0000_000
0000_000
0000_000
0000_000
0000_000
0000_000
0000_000
0000_000
0000_000
0000_000
0000_000
0000_000
0000_000
0000_000
0000_000
0000_000
0000_000
0000_000
0000_000
0000_000
0000_000
0000_000
0000_000
0000_000
0000_000
0000_000
0000_000
0000_000
0000_000
0000_000
0000_000
0000_000
0000_000
0000_000
0000_000
0000_000
0000_000
0000_000
0000_000
0000_000
0000_000
0000_000
0000_000
0000_000
0000_000
0000_000
0000_000
0000_000
0000_000
0000_000
0000_000
0000_000
0000_000
0000_000
0000_000
0000_000
0000_000
0000_000
0000_000
0000_000
0000_000
0000_000
0000_000
0000_000
0000_000
0000_000
0000_000
0000_000
0000_000
0000_000
0000_000
0000_000
0000_000
0000_000
0000_000
0000_000
0000_000
0000_000
0000_000
0000_000
0000_000
0000_000
0000_000
0000_000
0000_000
0000_000
0000_000
0000_000
0000_000
0000_000
0000_000
0000_000
0000_000
0000_000
0000_000
0000_000
0000_000
0000_000
0000_000
0000_000
0000_000
0000_000
0000_000
0000_000
0000_000
0000_000
0000_000
0000_000
0000_000
0000_000
0000_000
0000_000
0000_000
0000_000
0000_000
0000_000
0000_000
0000_000
0000_000
0000_000
0000_000
0000_000
0000_000
0000_000
0000_000
0000_000
0000_000
0000_000
0000_000
0000_000
0000_000
0000_000
0000_000
0000_000
0000_000
0000_000
0000_000
0000_000
0000_000
0000_000
0000_000
0000_000
0000_000
0000_000
0000_000
0000_000
0000_000
0000_000
0000_000
0000_000
0000_000
0000_000
0000_000
0000_000
0000_000
0000_000
0000_000
0000_000
0000_000
0000_000
0000_000
0000_000
0000_000
0000_000
0000_000
0000_000
0000_000
0000_000
0000_000
0000_000
0000_000
0000_000
0000_000
0000_000
0000_000
0000_000
0000_000
0000_000
0000_000
0000_000
0000_000
0000_000
0000_000
0000_000
0000_000
0000_000
0000_000
0000_000
0000_000
0000_000
0000_000
0000_000
0000_000
0000_000
0000_000
0000_000
0000_000
0000_000
0000_000
0000_000
0000_000
0000_000
0000_000
0000_000
0000_000
0000_000
0000_000
0000_000
0000_000
0000_000
0000_000
0000_000
0000_000
0000_000
0000_000
0000_000
0000_000
0000_000
0000_000
0000_000
0000_000
0000_000
0000_000
0000_000
0000_000
0000_000
0000_000
0000_000
0000_000
0000_000
0000_000
0000_000
0000_000
0000_000
0000_000
0000_000
0000_000
0000_000
0000_000
0000_000
0000_000
0000_000
0000_000
0000_000
0000_000
0000_000
0000_000
0000_000
0000_000
0000_000
0000_000
0000_000
0000_000
0000_000
0000_000
0000_000
0000_000
0000_000
0000_000
0000_000
0000_000
0000_000
0000_000
0000_000
0000_000
0000_000
0000_000
0000_000
0000_000
0000_000
0000_000
0000_000
0000_000
0000_000
0000_000
0000_000
0000_000
0000_000
0000_000
0000_000
0000_000
0000_000
0000_000
0000_000
0000_000
0000_000
0000_000
0000_000
0000_000
0000_000
0000_000
0000_000
0000_000
0000_000
0000_000
0000_000
0000_000
0000_000
0000_000
0000_000
0000_000
0000_000
0000_000
0000_000
0000_000
0000_000
0000_000
0000_000
0000_000
0000_000
0000_000
0000_000
0000_000
0000_000
0000_000
0000_000
0000_000
0000_000
0000_000
0000_000
0000_000
0000_000
0000_000
0000_000
0000_000
0000_000
0000_000
0000_000
0000_000
0000_000
0000_000
0000_000
0000_000
0000_000
0000_000
0000_000
0000_000
0000_000
0000_000
0000_000
0000_000
0000_000
0000_000
0000_000
0000_000
0000_000
0000_000
0000_000
0000_000
0000_000
0000_000
0000_000
0000_000
0000_000
0000_000
0000_000
0000_000
0000_000
0000_000
0000_000
0000_000
0000_000
0000_000
0000_000
0000_000
0000_000
0000_000
0000_000
0000_000
0000_000
0000_000
0000_000
0000_000
0000_000
0000_000
0000_000
0000_000
0000_000
0000_000
0000_000
0000_000
0000_000
0000_000
0000_000
0000_000
0000_000
0000_000
0000_000
0000_000
0000_000
0000_000
0000_000
0000_000
0000_000
0000_000
0000_000
0000_000
0000_000
0000_000
0000_000
0000_000
0000_000
0000_000
0000_000
0000_000
0000_000
0000_000
0000_000
0000_000
0000_000
0000_000
0000_000
0000_000
0000_000
0000_000
0000_000
0000_000
0000_000
0000_000
0000_000
0000_000
0000_000
0000_000
0000_000
0000_000
0000_000
0000_000
0000_000
0000_000
0000_000
0000_000
0000_000
0000_000
0000_000
0000_000
0000_000
0000_000
0000_000
0000_000
0000_000
0000_000
0000_000
0000_000
0000_000
0000_000
0000_000
0000_000
0000_000
0000_000
0000_000
0000_000
0000_000
0000_000
0000_000
0000_000
0000_000
0000_000
0000_000
0000_000
0000_000
0000_000
0000_000
0000_000
0000_000
0000_000
0000_000
0000_000
0000_000
0000_000
0000_000
0000_000
0000_000
0000_000
0000_000
0000_000
0000_000
0000_000
0000_000
0000_000
0000_000
0000_000
0000_000
0000_000
0000_000
0000_000
0000_000
0000_000
0000_000
0000_000
0000_000
0000_000
0000_000
0000_000
0000_000
0000_000
0000_000
0000_000
0000_000
0000_000
0000_000
0000_000
0000_000
0000_000
0000_000
0000_000
0000_000
0000_000
0000_000
0000_000
0000_000
0000_000
0000_000
0000_000
0000_000
0000_000
0000_000
0000_000
0000_000
0000_000
0000_000
0000_000
0000_000
0000_000
0000_000
0000_000
0000_000
0000_000
0000_000
0000_000
0000_000
0000_000
0000_000
0000_000
0000_000
0000_000
0000_000
0000_000
0000_000
0000_000
0000_000
0000_000
0000_000
0000_000
0000_000
0000_000
0000_000
0000_000
0000_000
0000_000
0000_000
0000_000
0000_000
0000_000
0000_000
0000_000
0000_000
0000_000
0000_000
0000_000
0000_000
0000_000
0000_000
0000_000
0000_000
0000_000
0000_000
0000_000
0000_000
0000_000
0000_000
0000_000
0000_000
0000_000
0000_000
0000_000
0000_000
0000_000
0000_000
0000_000
0000_000
0000_000
0000_000
0000_000
0000_000
0000_000
0000_000
0000_000
0000_000
0000_000
0000_000
0000_000
0000_000
0000_000
0000_000
0000_000
0000_000
0000_000
0000_000
0000_000
0000_000
0000_000
0000_000
0000_000
0000_000
0000_000
0000_000
0000_000
0000_000
0000_000
0000_000
0000_000
0000_000
0000_000
0000_000
0000_000
0000_000
0000_000
0000_000
0000_000
0000_000
0000_000
0000_000
0000_000
0000_000
0000_000
0000_000
0000_000
0000_000
0000_000
0000_000
0000_000
0000_000
0000_000
0000_000
0000_000
0000_000
0000_000
0000_000
0000_000
0000_000
0000_000
0000_000
0000_000
0000_000
0000_000
0000_000
0000_000
0000_000
0000_000
0000_000
0000_000
0000_000
0000_000
0000_000
0000_000
0000_000
0000_000
0000_000
0000_000
0000_000
0000_000
0000_000
0000_000
0000_000
0000_000
0000_000
0000_000
0000_000
0000_000
0000_000
0000_000
0000_000
0000_000
0000_000
0000_000
0000_000
0000_000
0000_000
0000_000
0000_000
0000_000
0000_000
0000_000
0000_000
0000_000
0000_000
0000_000
0000_000
0000_000
0000_000
0000_000
0000_000
0000_000
0000_000
0000_000
0000_000
0000_000
0000_000
0000_000
0000_000
0000_000
0000_000
0000_000
0000_000
0000_000
0000_000
0000_000
0000_000
0000_000
0000_000
0000_000
0000_000
0000_000
0000_000
0000_000
0000_000
0000_000
0000_000
0000_000
0000_000
0000_000
0000_000
0000_000
0000_000
0000_000
0000_000
0000_000
0000_000
0000_000
0000_000
0000_000
0000_000
0000_000
0000_000
0000_000
0000_000
0000_000
0000_000
0000_000
0000_000
0000_000
0000_000
0000_000
0000_000
0000_000
0000_000
0000_000
0000_000
0000_000
0000_000
0000_000
0000_000
0000_000
0000_000
0000_000
0000_000
0000_000
0000_000
0000_000
0000_000
0000_000
0000_000
0000_000
0000_000
0000_000
0000_000
0000_000
0000_000
0000_000
0000_000
0000_000
0000_000
0000_000
0000_000
0000_000
0000_000
0000_000
0000_000
0000_000
0000_000
0000_000
0000_000
0000_000
0000_000
0000_000
0000_000
0000_000
0000_000
0000_000
0000_000
0000_000
0000_000
